# Radius[km]  Mass[Solar Mass] Lambda Central_pressure[MeV fm-3]
1.917157429469614272e+01 1.583450404332168160e-01 1.568030038304878399e+07 2.291266418141003403e+00
1.816664081367693839e+01 1.666212826380600587e-01 1.198104424881753139e+07 2.493240764267628418e+00
1.732360181258275844e+01 1.753102496576666725e-01 9.224323218095095828e+06 2.707287069451433048e+00
1.660937393172102006e+01 1.844100059564464933e-01 7.147605726341583766e+06 2.934431071443345029e+00
1.599926993016879706e+01 1.939226668813395504e-01 5.571109487246200442e+06 3.175402658996782090e+00
1.547484413646503754e+01 2.038376184831277582e-01 4.365743799402662553e+06 3.430324973890337414e+00
1.502109433928063709e+01 2.141566904381484171e-01 3.438748219700769521e+06 3.700971855841665548e+00
1.462641451431333905e+01 2.248764320377167614e-01 2.720876983597341925e+06 3.986753757033705714e+00
1.428143106679693020e+01 2.359959394115225539e-01 2.162504360350813717e+06 4.290115268398841053e+00
1.397857422099600200e+01 2.475050944349591053e-01 1.726244276662009535e+06 4.610239374367293586e+00
1.371175992227549933e+01 2.594035945218264860e-01 1.383685893853254616e+06 4.949801346558786896e+00
1.347573390062129306e+01 2.716904733797196880e-01 1.113149551620349055e+06 5.308176458522705587e+00
1.326637735022480769e+01 2.843505513373104643e-01 8.989710711788048502e+05 5.687934310366840052e+00
1.307996771658725521e+01 2.973876495694817157e-01 7.286748765357987722e+05 6.089249180778018022e+00
1.291364432328391310e+01 3.107803453883737910e-01 5.927332941527669318e+05 6.513443013693584582e+00
1.276473635565966269e+01 3.245239888790060201e-01 4.839083187796834973e+05 6.962932504220385788e+00
1.263108382015266962e+01 3.386033559659686887e-01 3.962394209272244480e+05 7.438243096558028178e+00
1.251075326568788171e+01 3.530010959083093036e-01 3.256296228825888247e+05 7.941208063553049534e+00
1.240203572271049737e+01 3.676975342762363042e-01 2.684558785125846043e+05 8.473817229756861025e+00
1.230366170977170270e+01 3.826583316814813895e-01 2.220992424822615867e+05 9.038223151251520093e+00
1.221406799472094207e+01 3.978552202212211619e-01 1.843501056003138365e+05 9.636746412641448600e+00
1.213224459610155037e+01 4.132296989610534932e-01 1.536114279818178329e+05 1.027187977863309598e+01
1.205609000670049191e+01 4.291022015970090142e-01 1.279865740169432684e+05 1.102640039909439018e+01
1.198513042703236309e+01 4.460043905943109066e-01 1.061902081466328818e+05 1.181660263162949143e+01
1.192063223250011461e+01 4.639233174061576648e-01 8.785372947386032320e+04 1.263080164445418418e+01
1.186317322166473076e+01 4.828432954795022214e-01 7.257343054873583606e+04 1.346972616932921518e+01
1.181289650637960165e+01 5.027131423965046642e-01 5.990916863874610135e+04 1.433412706806665682e+01
1.176975926462646171e+01 5.235354757811742088e-01 4.945719855421873945e+04 1.522477800457299502e+01
1.173352397569775185e+01 5.452565899291347273e-01 4.085932348820621701e+04 1.614247613730086783e+01
1.170389700898958019e+01 5.678687835183965360e-01 3.379244141551860957e+04 1.708804283272893443e+01
1.168049775984281347e+01 5.913246617799986504e-01 2.799003049697721144e+04 1.806232440050878196e+01
1.166282066312449928e+01 6.156126726923585313e-01 2.322462748889256909e+04 1.906619285093663763e+01
1.165050090692099083e+01 6.406932328432527468e-01 1.930768686814702596e+04 2.010054667542789630e+01
1.164304073834759023e+01 6.665506794432610738e-01 1.608316194601268580e+04 2.116631165069302867e+01
1.164000559278872338e+01 6.931564084095209743e-01 1.342746997549482330e+04 2.226444166733462282e+01
1.164096285923831076e+01 7.204852306409649243e-01 1.123324055690747628e+04 2.339591958360718849e+01
1.164550558728518226e+01 7.485097649052692148e-01 9.419391076231426268e+03 2.456175810510382362e+01
1.165323315210594224e+01 7.772061204736705475e-01 7.914981228521239245e+03 2.576300069115713143e+01
1.166379053486716977e+01 8.065440515360555729e-01 6.665108378483715569e+03 2.700072248876559300e+01
1.167681696488567411e+01 8.365084987943959272e-01 5.624085603412298042e+03 2.827603129488145228e+01
1.169199795228642458e+01 8.670667334468135090e-01 4.755436052617858877e+03 2.959006854792102104e+01
1.170903652740519441e+01 8.981924190350967230e-01 4.028999354449487782e+03 3.094401034938532291e+01
1.172762365635268722e+01 9.298659493039669321e-01 3.419918779325679225e+03 3.233906851650503000e+01
1.174750239555903342e+01 9.620596045973768273e-01 2.908158304338389826e+03 3.377649166685207405e+01
1.176848598654045830e+01 9.947367980605806848e-01 2.477647719051452441e+03 3.525756633588870415e+01
1.179032935228246082e+01 1.027926881628328681e+00 2.113899643017675317e+03 3.724402538585273703e+01
1.181309543378237059e+01 1.061663409822714454e+00 1.805919267612551948e+03 3.936132760216204929e+01
1.183667053011887837e+01 1.095914324432645026e+00 1.544869649579803308e+03 4.154292783485186646e+01
1.186091353359368306e+01 1.130637151900749870e+00 1.323648274901584955e+03 4.379077867948392822e+01
1.188566552604469173e+01 1.165797568019507402e+00 1.135702093179083704e+03 4.610689202784158880e+01
1.191079394275064018e+01 1.201353213949234444e+00 9.759804371544149717e+02 4.849334086863137117e+01
1.193610592362417933e+01 1.237270582266040142e+00 8.398699882793137022e+02 5.095226114286805341e+01
1.196148448318827917e+01 1.273511885766579477e+00 7.238113317717711652e+02 5.348585365560396809e+01
1.198679494308356297e+01 1.310039393829373289e+00 6.247469857410879968e+02 5.609638604571333076e+01
1.201188119231949969e+01 1.346821702764813278e+00 5.399773135113949820e+02 5.878619481549490899e+01
1.203663086089254186e+01 1.383812453871009707e+00 4.674071265284272840e+02 6.155768742190954868e+01
1.206095375147794080e+01 1.420986398857592370e+00 4.051411370893877688e+02 6.441334443132390675e+01
1.208467672093999923e+01 1.458303111129531704e+00 3.516466473946455267e+02 6.735572173968944298e+01
1.210770761863990508e+01 1.495729969319345098e+00 3.056050516485533990e+02 7.038745286014355429e+01
1.212997437200956341e+01 1.533230866963043670e+00 2.659492055049371402e+02 7.351125128008025911e+01
1.215134816016076158e+01 1.570769263046309039e+00 2.317196050942520458e+02 7.672991288980033175e+01
1.217174787643787859e+01 1.608316031209373165e+00 2.021469170013918699e+02 8.004631848491411006e+01
1.219109593637792699e+01 1.645826390472484801e+00 1.765618916834964409e+02 8.346343634473736017e+01
1.220908884122520099e+01 1.683060547574568577e+00 1.544861542682169500e+02 8.800171324964644270e+01
1.222531316209143526e+01 1.719682687964357859e+00 1.355287241522077011e+02 9.276387083258599375e+01
1.223955558472229121e+01 1.755668523827985661e+00 1.191770675882220445e+02 9.767064512820631705e+01
1.225182032289389156e+01 1.791031769113379912e+00 1.050245906181579869e+02 1.027264278419942087e+02
1.226191544525643984e+01 1.825737173148223258e+00 9.273092212098443099e+01 1.079357440462981401e+02
1.226984663408984844e+01 1.859781393661865900e+00 8.202718018486555707e+01 1.133032562303991426e+02
1.227555163477963873e+01 1.893164522010062134e+00 7.267571060569608221e+01 1.188337684735740112e+02
1.227898320122517895e+01 1.925872100551635935e+00 6.448686199233078753e+01 1.245322307448860499e+02
1.228008729173349067e+01 1.957886929131264164e+00 5.730107766345584253e+01 1.304037433335510627e+02
1.227893488353746143e+01 1.989233090556267181e+00 5.098044788727090548e+01 1.364535614138441417e+02
1.227534349509996936e+01 2.019643946696381143e+00 4.544421001037515850e+01 1.441574753631703345e+02
1.226888038230059230e+01 2.048743265812764225e+00 4.062191602121092870e+01 1.522381445703157965e+02
1.225947678022459009e+01 2.076577071281909603e+00 3.639881376303909377e+01 1.605642067105267472e+02
1.224699490929947743e+01 2.103136678620591393e+00 3.268500049720914546e+01 1.691431138512068912e+02
1.223144904649386788e+01 2.128462510188526835e+00 2.940821324316757313e+01 1.779825443633779400e+02
1.221275739645415293e+01 2.152567122744304839e+00 2.650251160956541341e+01 1.870904097940446889e+02
1.219103555678681339e+01 2.175456379550571029e+00 2.392582441261983561e+01 1.974779161449239950e+02
1.216608510109618635e+01 2.196727278143238316e+00 2.165834566375955816e+01 2.092410111927919161e+02
1.213768440175680752e+01 2.216320125324605428e+00 1.966012566221311175e+01 2.213613267036843695e+02
1.210571796984198656e+01 2.234282584955332052e+00 1.788785286447930289e+01 2.338497107119566749e+02
1.207021587283917263e+01 2.250700607353301574e+00 1.630658851446823476e+01 2.467173406839578718e+02
1.203119551579090896e+01 2.265420862965292770e+00 1.490164962307133045e+01 2.623175486364185645e+02
1.198864543957103379e+01 2.278273685394870185e+00 1.365838633780075817e+01 2.785224382679581936e+02
1.194226235762392818e+01 2.289267879786941240e+00 1.255196819583862222e+01 2.952194363245242812e+02
1.189220786427807930e+01 2.298513202061795990e+00 1.156111256424525813e+01 3.137652493196331420e+02
1.183855521164951696e+01 2.305854639919813209e+00 1.067879126614048069e+01 3.344120287208295395e+02
1.178118387132304079e+01 2.311314223934754608e+00 9.890458981455040544e+00 3.556858073996520488e+02
1.172013497515869496e+01 2.314969096161191509e+00 9.181303223074728237e+00 3.795031992565273526e+02
1.165563601340591937e+01 2.316778755108037213e+00 8.547047537069319745e+00 4.054668425242174976e+02
1.158756144297473867e+01 2.316785702341935593e+00 7.975354993533021464e+00 4.324103098518500019e+02
