# Radius[km]  Mass[Solar Mass] Lambda Central_pressure[MeV fm-3]
1.877762976115400662e+01 1.728390382405714798e-01 1.282972232995429076e+07 2.118563184735018812e+00
1.804834063792972643e+01 1.808543641286857739e-01 1.024688088741430081e+07 2.277210175191410002e+00
1.742201344101928839e+01 1.890811252406737475e-01 8.238833732356084511e+06 2.445112258883667788e+00
1.687918233893671882e+01 1.975111793379953906e-01 6.662942177729823627e+06 2.622899866222858645e+00
1.640514754314181900e+01 2.061351635257147319e-01 5.418113406114835292e+06 2.811035523844379824e+00
1.598824882475834919e+01 2.149460307057110553e-01 4.427412181833094917e+06 3.010132581745065927e+00
1.561898121481065793e+01 2.239378215449992215e-01 3.634483212399116717e+06 3.220826246633320622e+00
1.528995420118752691e+01 2.331053351191601786e-01 2.995902285214444157e+06 3.443779551260950367e+00
1.499504027343041912e+01 2.424441088153309609e-01 2.478877038374818861e+06 3.679845344889851155e+00
1.472937390696883497e+01 2.519490374586346171e-01 2.058648887040306348e+06 3.929622848227595000e+00
1.448879330483368655e+01 2.616138085465510299e-01 1.715647663440544158e+06 4.195160586834204786e+00
1.426708469643512700e+01 2.716152951183931630e-01 1.430269620605736738e+06 4.519079517378431277e+00
1.406120511356742853e+01 2.821170275612438494e-01 1.190520773525146302e+06 4.851672949992528849e+00
1.387145939241100301e+01 2.930993512886777563e-01 9.905506056588100037e+05 5.193173186586223622e+00
1.369728284207800506e+01 3.045532421854153515e-01 8.243019667543174000e+05 5.543818750080748536e+00
1.353811537840007162e+01 3.164567973838360859e-01 6.864877607300906675e+05 5.903854551006634921e+00
1.339286728066580956e+01 3.288040992963215392e-01 5.723042256274435204e+05 6.273532058562988567e+00
1.326058086096264077e+01 3.415827792688780340e-01 4.778692774819004699e+05 6.653109476257650812e+00
1.314033800353808523e+01 3.547699750258891949e-01 3.996999534295360208e+05 7.042851922251014862e+00
1.303100246633488979e+01 3.683651400892327121e-01 3.348918720477393945e+05 7.443031614529457052e+00
1.293180050388525615e+01 3.823502298859951520e-01 2.811651865265378729e+05 7.853928061037597885e+00
1.284166773617311641e+01 3.967133022742480586e-01 2.365067599904953386e+05 8.275828254902373615e+00
1.275987921771830358e+01 4.114542096143458116e-01 1.993402077972354600e+05 8.709026874885099190e+00
1.268561505657766375e+01 4.265530304230962799e-01 1.683601082686721347e+05 9.153826491201666471e+00
1.261811452281431833e+01 4.420035223711855643e-01 1.424945689119795279e+05 9.610537776854560121e+00
1.255674754497658974e+01 4.577977997431997292e-01 1.208288449411369656e+05 1.007947972462427799e+01
1.250088031915553266e+01 4.739248967754621233e-01 1.026475810577564407e+05 1.056097986987181869e+01
1.244996842406253279e+01 4.903798077600735050e-01 8.737023941412687418e+04 1.105537451930772797e+01
1.240350203666556439e+01 5.071556902301420644e-01 7.449719809282147617e+04 1.156300898588757775e+01
1.236092191906762139e+01 5.243220959812443516e-01 6.358572091805284435e+04 1.225257575088980566e+01
1.232210275820600920e+01 5.420260361950308692e-01 5.428429521660922910e+04 1.299686639867034188e+01
1.228702334998568801e+01 5.602584601965423516e-01 4.635100498790540587e+04 1.376108904225584872e+01
1.225556931794846349e+01 5.789964044611051186e-01 3.960214360715023940e+04 1.454577745760866314e+01
1.222756243645404872e+01 5.982271215592805946e-01 3.386465758606734744e+04 1.535147971513411136e+01
1.220279653954224486e+01 6.179310770442137946e-01 2.898623493245580903e+04 1.617875856248363320e+01
1.218108248004644345e+01 6.380905247153439985e-01 2.483871360262074450e+04 1.702819181760931855e+01
1.216208996647355889e+01 6.586785158480791269e-01 2.131395873379656769e+04 1.790037277234436175e+01
1.214561039114051866e+01 6.797063247703605260e-01 1.830438223506252689e+04 1.879591060679139147e+01
1.213147254613478943e+01 7.011350098182610457e-01 1.574111222557910696e+04 1.971543081480796999e+01
1.211947449061143800e+01 7.229595558977540692e-01 1.355474054593855908e+04 2.065957564088664000e+01
1.210924739785237492e+01 7.451590455060995710e-01 1.168790937311488960e+04 2.162900452873445900e+01
1.210061965881490487e+01 7.677132106316602034e-01 1.009016734163758338e+04 2.262439458186553409e+01
1.209346832791734805e+01 7.906151989391098089e-01 8.722785772870591245e+03 2.364644103652802798e+01
1.208757558929129061e+01 8.138493268644698686e-01 7.549963471813234719e+03 2.469585774729621619e+01
1.208270950328281046e+01 8.373944125495899060e-01 6.543577820998374591e+03 2.577337768566652798e+01
1.207874092838946822e+01 8.612499368229028507e-01 5.677583977484538082e+03 2.687975345200593935e+01
1.207559400607961742e+01 8.853995332278408181e-01 4.932406570391895002e+03 2.826134576601486614e+01
1.207304770791178683e+01 9.098827370667594838e-01 4.288511674792534905e+03 2.979822573684733911e+01
1.207113073839039785e+01 9.346762864367816892e-01 3.732550570873370361e+03 3.137626313082187224e+01
1.206983555441242295e+01 9.597619024754953099e-01 3.252158402050824861e+03 3.299656013777232744e+01
1.206897959936578424e+01 9.851233696969358133e-01 2.836558381195534366e+03 3.466024846401673898e+01
1.206846137541496766e+01 1.010736902997031450e+00 2.476776234318152092e+03 3.636849012280452342e+01
1.206822016283151378e+01 1.036581608723876391e+00 2.165047692612416995e+03 3.812247824593172396e+01
1.206807581714992672e+01 1.062640059013981730e+00 1.894569794747816559e+03 3.992343791709111400e+01
1.206796089677757600e+01 1.088890079913757081e+00 1.659716300395926964e+03 4.177262702753950663e+01
1.206779523962969591e+01 1.115316029083375460e+00 1.455426909186762487e+03 4.367133715467936383e+01
1.206745523011918308e+01 1.141895229452552174e+00 1.277642795704322680e+03 4.562089446416913319e+01
1.206686821443041602e+01 1.168616423071895838e+00 1.122656558914070274e+03 4.762266063619154011e+01
1.206596811599042063e+01 1.195441414628188204e+00 9.877489862429262075e+02 4.967803381652752392e+01
1.206455172596920811e+01 1.222381092992006701e+00 8.695080425259067169e+02 5.178844959309966356e+01
1.206272124590734052e+01 1.249378245020701161e+00 7.663412136608397986e+02 5.451968427583573629e+01
1.206032792477517290e+01 1.276406689280598528e+00 6.761453985886337250e+02 5.735513561770594748e+01
1.205746901925594905e+01 1.303449640852313962e+00 5.972462186079405910e+02 6.026651993605503321e+01
1.205385648697707524e+01 1.330484174540369047e+00 5.280740154318264103e+02 6.325587070500115772e+01
1.204966096679598841e+01 1.357503446209665565e+00 4.673801410979720572e+02 6.632527585480495702e+01
1.204473203251646929e+01 1.384460405050777387e+00 4.141316577328653921e+02 6.947687923019722689e+01
1.203898904526581148e+01 1.411369873335700076e+00 3.672672904590323810e+02 7.271288208776033457e+01
1.203243392828880687e+01 1.438190878830148067e+00 3.260269174704131387e+02 7.603554463340924485e+01
1.202499363602859717e+01 1.464906184881062945e+00 2.896757375256476621e+02 7.944718760104616706e+01
1.201662211905360778e+01 1.491507668145830356e+00 2.576190794352678495e+02 8.295019387349118745e+01
1.200726801908602503e+01 1.517979627105012774e+00 2.292952015033349653e+02 8.654701014682147786e+01
1.199691980547928871e+01 1.544253038923617982e+00 2.042767653141990820e+02 9.107875122234054288e+01
1.198556977088497888e+01 1.570272108465742944e+00 1.822185602379496174e+02 9.580260729906622430e+01
1.197309734853568841e+01 1.596043095099955123e+00 1.626894570994541311e+02 1.006529675577070861e+02
1.195958874479146239e+01 1.621518727134824145e+00 1.454290641025834532e+02 1.056332197619422573e+02
1.194495835090459579e+01 1.646709569078284252e+00 1.301134900463849533e+02 1.107468423992716993e+02
1.192917804339051990e+01 1.671588925049728003e+00 1.165251202853577865e+02 1.159974071105872468e+02
1.191221750648413646e+01 1.696147318970941509e+00 1.044517521073255608e+02 1.213885811848065686e+02
1.189408439723880839e+01 1.720380403205498343e+00 9.370653665504838159e+01 1.269241301203138761e+02
1.187469667955431341e+01 1.744265175715865368e+00 8.413786255405985059e+01 1.326079202549948945e+02
1.185406355476584395e+01 1.767760343867994077e+00 7.560764201936174800e+01 1.395645721321081112e+02
1.183224117770656392e+01 1.790780912066145092e+00 6.802770473298960496e+01 1.469069379576769165e+02
1.180918292105278944e+01 1.813312984738944422e+00 6.127384821802257875e+01 1.544459312771827797e+02
1.178486512053681778e+01 1.835364672080604720e+00 5.524651631845823374e+01 1.621868177464497762e+02
1.175930589522505088e+01 1.856898447446093003e+00 4.986801645979533504e+01 1.701350040348025345e+02
1.173237977460740034e+01 1.877975625088526668e+00 4.504358884602288526e+01 1.782960416013879126e+02
1.170419093673585742e+01 1.898531423671879992e+00 4.072449450768942114e+01 1.866756305726248968e+02
1.167466887404988363e+01 1.918556233295156010e+00 3.685023355218767449e+01 1.956518943824436008e+02
1.164387210631345049e+01 1.938036842127030646e+00 3.337478618095973104e+01 2.063414190365039644e+02
1.161184017535296320e+01 1.956851721957043821e+00 3.027027666712973542e+01 2.173172076133976134e+02
1.157854836331623893e+01 1.975053820546917027e+00 2.747898650488422589e+01 2.285869262195388103e+02
1.154394773807704588e+01 1.992623747330715123e+00 2.497110243980398181e+01 2.401584462585623783e+02
1.150802476918858730e+01 2.009562379918137687e+00 2.271336128450308323e+01 2.520398499291520977e+02
1.147082498969102993e+01 2.025894121632610734e+00 2.067915332431017816e+01 2.642394358701030228e+02
1.143231546972937096e+01 2.041560677819997505e+00 1.884299881813323552e+01 2.782791687716110118e+02
1.139263055551435677e+01 2.056344421465382322e+00 1.720203824998851871e+01 2.936073422414930292e+02
1.135158162689849348e+01 2.070228760264409384e+00 1.573070580422822573e+01 3.093460019780112020e+02
1.130905732249711271e+01 2.083200193739545458e+00 1.440625988007801617e+01 3.255061407439647496e+02
1.126500173652435777e+01 2.095289738113300437e+00 1.321253522307613260e+01 3.420990456867488660e+02
1.121954681532346321e+01 2.106369551315566024e+00 1.213987822958736551e+01 3.611196302583423972e+02
1.117270530197576406e+01 2.116082455107966442e+00 1.119015122717100574e+01 3.814531452162671599e+02
1.112397264860033630e+01 2.124291819783738600e+00 1.034717769748272787e+01 4.023311887613107842e+02
1.107357584070043899e+01 2.130802014696720370e+00 9.607198309824443783e+00 4.258112659697511617e+02
1.102173285876681597e+01 2.134717371631754901e+00 8.987222191127164805e+00 4.512891804402456160e+02
