# Radius[km]  Mass[Solar Mass] Lambda Central_pressure[MeV fm-3]
1.891853061975968942e+01 1.658939810738771226e-01 1.402133352681411989e+07 2.199017501939299457e+00
1.799956349438699732e+01 1.748786144003552923e-01 1.073097646160088480e+07 2.391083755439875613e+00
1.722970687495400455e+01 1.842490816605823201e-01 8.278327410003360361e+06 2.595262667602770801e+00
1.657786164787521344e+01 1.940006151598563378e-01 6.430214287321690470e+06 2.812369797857257048e+00
1.602110671359869443e+01 2.041269643560953417e-01 5.026764531016897410e+06 3.042901864930706690e+00
1.554177520480293850e+01 2.146300504119769137e-01 3.951753483074243646e+06 3.287656634323205207e+00
1.512640665200033752e+01 2.254994226742998709e-01 3.122988308950889390e+06 3.547639489862618234e+00
1.476412986597528487e+01 2.367375376794770836e-01 2.480498369234151673e+06 3.823476404587554001e+00
1.444649900119758712e+01 2.483404251472138557e-01 1.978545909354313510e+06 4.116071234366347475e+00
1.416653698871658840e+01 2.603100855399961278e-01 1.585196873975570314e+06 4.426371784533568388e+00
1.391865300511585701e+01 2.726467070328202347e-01 1.274780567055211170e+06 4.755370147455664664e+00
1.369693694961927299e+01 2.854572686552671046e-01 1.027374866350744269e+06 5.146646943195582580e+00
1.349644845392431414e+01 2.989985577657630067e-01 8.271423326804446988e+05 5.565814643428310227e+00
1.331679672857320895e+01 3.132592467990209517e-01 6.659950967666307697e+05 5.997912270543068303e+00
1.315689889426604253e+01 3.282139183421672879e-01 5.368919682305381866e+05 6.443338669701546451e+00
1.301521733798315239e+01 3.438394131986556856e-01 4.334776487276737462e+05 6.902504989109716327e+00
1.289041746415375300e+01 3.601184951578856874e-01 3.508515229510467616e+05 7.375835059525759796e+00
1.278080527642003084e+01 3.770291278101416954e-01 2.846452193734894972e+05 7.863765785474532422e+00
1.268484073582814453e+01 3.945530271861529825e-01 2.315582717395794170e+05 8.366747548529726686e+00
1.260120298907633796e+01 4.126757117496474558e-01 1.889297502104067535e+05 8.885244623035886136e+00
1.252853880672644671e+01 4.313807651548489108e-01 1.545853490024870262e+05 9.419735604654132288e+00
1.246560059357812911e+01 4.506437450525965782e-01 1.268572218354658253e+05 9.970713852127051524e+00
1.241140323087570607e+01 4.704511921285249310e-01 1.044218811490306689e+05 1.053868794267055975e+01
1.236479779909774734e+01 4.907972543556767819e-01 8.618125832827867998e+04 1.112418214141310280e+01
1.232505010401690093e+01 5.116594195305771420e-01 7.133602972273255000e+04 1.172773688531545666e+01
1.229118850900209559e+01 5.330279246579306962e-01 5.920412206789410266e+04 1.234990928201793814e+01
1.226263662850356262e+01 5.548846765699582129e-01 4.926055630504482542e+04 1.299127362407526221e+01
1.223861592270235477e+01 5.772221286331655765e-01 4.108588633969255898e+04 1.365242191905390179e+01
1.221862276742462683e+01 6.000209771221011179e-01 3.435935102286907204e+04 1.433396443598119241e+01
1.220206884885536169e+01 6.232941508326931279e-01 2.878588835689498228e+04 1.514052501494354530e+01
1.218873153407325205e+01 6.472429694003580813e-01 2.413584156847050326e+04 1.614717387598750165e+01
1.217876640795845944e+01 6.718992809392829724e-01 2.025325916011671870e+04 1.718487450023256713e+01
1.217188888872286689e+01 6.972428744133609690e-01 1.701139149612257097e+04 1.825458473110876056e+01
1.216781425846904874e+01 7.232282580664527449e-01 1.430564622999811581e+04 1.935729195832438165e+01
1.216649552688268265e+01 7.498442352159478963e-01 1.204705821023708995e+04 2.049401402927025373e+01
1.216750839352506119e+01 7.770517768862916785e-01 1.016108361112549392e+04 2.166580018853771250e+01
1.217059869221540325e+01 8.048217799741823608e-01 8.583423059882361486e+03 2.287373204641766478e+01
1.217547276854485538e+01 8.331350630038334426e-01 7.262328401240969470e+03 2.411892457727455152e+01
1.218190252148508890e+01 8.619628029870067820e-01 6.154207430604263209e+03 2.540252714871682116e+01
1.218969822834282724e+01 8.912793302953982977e-01 5.224778985129943067e+03 2.672572458251401173e+01
1.219851042856772594e+01 9.210493207253257486e-01 4.441683619324087886e+03 2.808973824823933185e+01
1.220811863288670729e+01 9.512619047323119803e-01 3.782298038518518297e+03 2.949582719064776981e+01
1.221837847813107025e+01 9.818804289827688381e-01 3.225805636880803377e+03 3.094528929182983035e+01
1.222909534920177776e+01 1.012881105779049440e+00 2.755660959588010428e+03 3.243946246921399279e+01
1.224001917586084787e+01 1.044234442198515911e+00 2.357505474793114900e+03 3.397972591052338487e+01
1.225089050576274552e+01 1.075918797120439141e+00 2.019684848743240309e+03 3.556750134682700804e+01
1.226178647993612891e+01 1.107929114152589767e+00 1.732729954720946353e+03 3.773291182534197929e+01
1.227262282981982366e+01 1.140251445352010951e+00 1.488608823133940405e+03 3.997362522207681224e+01
1.228320282688125076e+01 1.172867245218962129e+00 1.280415851432594309e+03 4.228345716102582230e+01
1.229356259474414692e+01 1.205726776865429839e+00 1.102966847852436103e+03 4.466453971891284880e+01
1.230363448763896272e+01 1.238794872692088544e+00 9.514949645324894618e+02 4.711907073992441042e+01
1.231302098438727022e+01 1.272062450305444958e+00 8.218436651135140210e+02 4.964931586441706202e+01
1.232187765175813254e+01 1.305469981010193292e+00 7.108765817713504021e+02 5.225761062020321646e+01
1.233002058207777907e+01 1.338993071130437196e+00 6.157426941563194305e+02 5.494636257834626036e+01
1.233733195948048511e+01 1.372601723032242704e+00 5.340263456091179251e+02 5.771805357545485293e+01
1.234367590932801662e+01 1.406261786669673830e+00 4.637099158392435356e+02 6.057524200452751728e+01
1.234904311284024914e+01 1.439942826626136485e+00 4.031880923439700837e+02 6.352056517646227718e+01
1.235325344038112405e+01 1.473611709169027506e+00 3.509530276088797791e+02 6.655674175441068030e+01
1.235624029616415598e+01 1.507240219981178964e+00 3.058503333716554380e+02 6.990533389611104553e+01
1.235799624597699520e+01 1.540729118964438538e+00 2.669096548022889692e+02 7.406933251086991277e+01
1.235845213039914725e+01 1.574025079278794870e+00 2.332554121936046272e+02 7.836177660841714498e+01
1.235757203184019914e+01 1.607096480240086667e+00 2.041481119574666536e+02 8.278662830391544958e+01
1.235528395539578916e+01 1.639915425187214781e+00 1.789280992956670673e+02 8.734797193057842435e+01
1.235150636332130247e+01 1.672461486198886016e+00 1.570117022945539418e+02 9.205001780969030278e+01
1.234623175409089946e+01 1.704711422115065433e+00 1.379544050179516432e+02 9.689710613691805463e+01
1.233937577681671449e+01 1.736621372381129680e+00 1.213578526908881656e+02 1.018937109885034431e+02
1.233093171282634692e+01 1.768175375386880299e+00 1.068881229787573233e+02 1.070444444510327457e+02
1.232081487788610907e+01 1.799350538465980698e+00 9.423854143869310462e+01 1.123540608785957033e+02
1.230899270093761899e+01 1.830118514400620233e+00 8.317115277239540205e+01 1.180682767164205558e+02
1.229550813279775490e+01 1.860356294857248960e+00 7.351064044298017564e+01 1.252083058763217736e+02
1.228023080647549037e+01 1.889984342661292782e+00 6.506923236304531599e+01 1.325685811451714358e+02
1.226324103641320562e+01 1.918984789300363536e+00 5.768062633217061119e+01 1.401558963815685672e+02
1.224445040145924146e+01 1.947349213069815344e+00 5.119863363027480574e+01 1.479772550120132166e+02
1.222387038997721298e+01 1.975063057557178592e+00 4.550498681550704561e+01 1.560398764953772286e+02
1.220139843207363839e+01 2.002120616308099788e+00 4.048876702070171518e+01 1.643512029867832496e+02
1.217711313929550521e+01 2.028501422304946455e+00 3.606791550464581064e+01 1.729189062070424541e+02
1.215094272389842800e+01 2.054201541706329959e+00 3.216230300567364253e+01 1.817508945239905245e+02
1.212292116830489164e+01 2.079063283393164596e+00 2.872215384866933618e+01 1.929573140596489793e+02
1.209296967070322992e+01 2.102865253078454622e+00 2.570288010293678482e+01 2.046137219486756464e+02
1.206095947327822238e+01 2.125596129247967259e+00 2.304569969816274622e+01 2.166296911818337207e+02
1.202683131908185032e+01 2.147309146691683157e+00 2.069660386618404502e+01 2.290163130285286002e+02
1.199050611983214587e+01 2.167973518650914144e+00 1.861492139263387102e+01 2.417850208868702566e+02
1.195204244215009304e+01 2.187600384311232382e+00 1.676608425376807787e+01 2.549476008372044760e+02
1.191141849227574490e+01 2.206119023646218480e+00 1.512607602355874903e+01 2.707139509037690459e+02
1.186861685432098490e+01 2.223163689325734271e+00 1.368435202995044087e+01 2.876666559505405303e+02
1.182339262376462941e+01 2.238732958869031009e+00 1.241101023719312479e+01 3.051422954614556033e+02
1.177556568845960427e+01 2.252817987132619937e+00 1.128161695834475076e+01 3.231570002223106712e+02
1.172512398981395343e+01 2.265474512444074051e+00 1.027595117912728639e+01 3.430513206654879923e+02
1.167222009356009949e+01 2.276372221673309326e+00 9.390768997613170299e+00 3.656600847395398546e+02
1.161654022291375377e+01 2.285397370169857112e+00 8.610554507806266855e+00 3.889662538526925459e+02
1.155784426383343444e+01 2.292620246385183247e+00 7.917329088974374152e+00 4.139097082140947919e+02
1.149640055120508464e+01 2.297784918453277925e+00 7.308968426272946850e+00 4.425157733202738086e+02
1.143183177440741183e+01 2.300731757961791413e+00 6.776014333847595772e+00 4.720042402193390103e+02
1.136424710771151148e+01 2.301370229507869958e+00 6.310714478176050690e+00 5.062291474681035197e+02
