# Radius[km]  Mass[Solar Mass] Lambda Central_pressure[MeV fm-3]
1.909335488918118884e+01 1.621848914456312796e-01 1.495043872668040544e+07 2.239009168842056141e+00
1.821449274701108223e+01 1.698704363209967150e-01 1.172747110519703850e+07 2.420962459212810725e+00
1.746401825728011303e+01 1.778633232960069310e-01 9.263078158328605816e+06 2.613914812128893317e+00
1.681831755547531415e+01 1.861556196243242534e-01 7.358828176235219464e+06 2.817871227957447822e+00
1.625817560872424750e+01 1.947487257448520248e-01 5.874596486525080167e+06 3.034298226996519077e+00
1.576907414292043264e+01 2.036410621172463908e-01 4.711816126195884310e+06 3.262882783164226641e+00
1.533936914332402601e+01 2.128344803976870148e-01 3.794785308519576676e+06 3.504688281272358541e+00
1.496025466686707084e+01 2.223203650824068789e-01 3.069175668863410130e+06 3.760489864962265116e+00
1.462376797392639638e+01 2.321066432026989979e-01 2.491067105824127328e+06 4.030512110505469536e+00
1.432394888139665490e+01 2.421888006941579630e-01 2.028728467192478944e+06 4.315887816207425232e+00
1.405577226364370702e+01 2.525654070536705320e-01 1.657851576749031898e+06 4.617504646115452083e+00
1.381496192300136094e+01 2.632419307096534045e-01 1.358843738923272118e+06 4.935784875561742169e+00
1.359823409484038770e+01 2.742098524860735465e-01 1.117224384199815802e+06 5.271658600041356557e+00
1.340231560358499507e+01 2.854680207889077059e-01 9.211354906040814240e+05 5.626308224143685699e+00
1.322489010089202921e+01 2.970110527810530532e-01 7.616281843959556427e+05 6.000851979972424033e+00
1.306369967385597697e+01 3.088385131621076418e-01 6.313746527439153288e+05 6.396055742527131827e+00
1.291682053205406788e+01 3.209465451597265373e-01 5.247977393115675077e+05 6.813100367703431637e+00
1.278275423749335360e+01 3.333233735752030302e-01 4.373446708138944232e+05 7.253243348774010890e+00
1.266001428828782949e+01 3.459632668689668900e-01 3.653653907166738645e+05 7.717823337686919416e+00
1.254733996481409797e+01 3.588534645876739759e-01 3.059922379101724946e+05 8.208264744263855661e+00
1.244349321357865001e+01 3.720042099807783775e-01 2.568753656462427462e+05 8.754554056272365159e+00
1.234667119511287048e+01 3.856495262822079440e-01 2.154673597105043591e+05 9.361896893285885923e+00
1.225694971923573462e+01 3.998352339001730593e-01 1.807055699497151654e+05 9.986310976791965999e+00
1.217425205905954044e+01 4.145322010606851681e-01 1.515903861659874965e+05 1.062827614690567124e+01
1.209831773694292067e+01 4.297339095827391597e-01 1.272454708774337196e+05 1.128828573113074363e+01
1.202885867429506561e+01 4.454224253841204684e-01 1.069083285046762321e+05 1.196684692346426715e+01
1.196550786963492996e+01 4.615787910365796165e-01 8.993491895506739093e+04 1.266448117415733066e+01
1.190779204895429721e+01 4.781897198015349071e-01 7.575116884202545043e+04 1.338172459043106244e+01
1.185531944198087473e+01 4.952374734526280853e-01 6.390421338698759791e+04 1.411912834845603548e+01
1.180761997642167316e+01 5.127085601703879059e-01 5.399579835048189125e+04 1.487725911691168612e+01
1.176422325626447041e+01 5.305840475700830394e-01 4.569488773524566932e+04 1.565669949245111070e+01
1.172486485680993695e+01 5.488599279403852949e-01 3.873804560045956168e+04 1.645804844740591122e+01
1.168906740135551559e+01 5.675159420128498278e-01 3.289201400643996021e+04 1.728192179007531237e+01
1.165645986373762533e+01 5.865370738190365252e-01 2.797533822410347420e+04 1.812895263795298817e+01
1.162672167898924158e+01 6.059168728871792142e-01 2.383141301069567999e+04 1.907387989404574213e+01
1.159966144908843866e+01 6.258401897205946307e-01 2.030642356639557329e+04 2.023881684187908903e+01
1.157526360371598351e+01 6.463316709954342043e-01 1.730589690774230621e+04 2.143649794107598439e+01
1.155354909550266207e+01 6.673741487959626850e-01 1.475805355725570371e+04 2.266784356715591287e+01
1.153443232548460173e+01 6.889497378843186803e-01 1.259448939769071512e+04 2.393379996563533396e+01
1.151773403642333449e+01 7.110236872960625787e-01 1.075817457584783187e+04 2.523533997918385552e+01
1.150326950409451854e+01 7.335904939778693512e-01 9.198885316300649720e+03 2.657346379521937507e+01
1.149082129196697011e+01 7.566100025331393697e-01 7.874961187840358434e+03 2.794919971451674812e+01
1.148021698767908205e+01 7.800649396764837151e-01 6.749598018122048416e+03 2.936360494142045852e+01
1.147136119467061377e+01 8.039476775135473430e-01 5.792656014641708680e+03 3.081776639626876602e+01
1.146387273612019264e+01 8.282101737070556302e-01 4.977606011485139788e+03 3.231280155065346804e+01
1.145771994438848829e+01 8.528496621465837535e-01 4.283090625866944720e+03 3.384985928615730444e+01
1.145262242986129664e+01 8.778373069908680382e-01 3.690131528831312608e+03 3.543012077722876541e+01
1.144849513072743186e+01 9.031544369708920383e-01 3.183676879018064028e+03 3.705480039887277144e+01
1.144507013712850529e+01 9.287793203684768795e-01 2.749921777433607076e+03 3.879506794236903033e+01
1.144239619909474648e+01 9.547371874871385389e-01 2.378143821861573997e+03 4.096753834651547521e+01
1.144029249048968921e+01 9.810291072311853044e-01 2.058649970371408472e+03 4.320107274204664805e+01
1.143869221309033968e+01 1.007626763719720042e+00 1.783993842470693835e+03 4.549738752106464545e+01
1.143764191022594545e+01 1.034509170979075909e+00 1.547907120774774739e+03 4.785824732017353966e+01
1.143688966732077539e+01 1.061647738444177591e+00 1.344522332999134505e+03 5.028546637654004314e+01
1.143650928971298164e+01 1.089010690420524563e+00 1.169539598517337481e+03 5.278090992207053489e+01
1.143606126580575655e+01 1.116577028285725026e+00 1.018280651659324690e+03 5.534649561677574070e+01
1.143576655923635066e+01 1.144324691072456490e+00 8.877772491798239116e+02 5.798419502242452950e+01
1.143527739201602067e+01 1.172224210801924515e+00 7.748445750521080981e+02 6.069603511761945924e+01
1.143464051902902945e+01 1.200251785237348434e+00 6.770806847387851803e+02 6.348409985545793432e+01
1.143374422077101293e+01 1.228381869939693560e+00 5.923155492181975887e+02 6.635053176497633842e+01
1.143246826504990565e+01 1.256594765204231301e+00 5.187697642053849449e+02 6.942309287287702091e+01
1.143075067060530259e+01 1.284840962925053010e+00 4.548556887747430437e+02 7.318312504121625750e+01
1.142854810609838090e+01 1.313096689608393097e+00 3.993343361533382563e+02 7.704884452823912966e+01
1.142584737571582920e+01 1.341334436301814925e+00 3.510323513512771001e+02 8.102322200250117135e+01
1.142257682038032129e+01 1.369538960523711157e+00 3.089090476692131233e+02 8.510931163237400199e+01
1.141864646501634084e+01 1.397670294850046346e+00 2.722050151781016893e+02 8.931025343306554021e+01
1.141399775318605947e+01 1.425721388389756594e+00 2.400895773038901098e+02 9.362927567961060049e+01
1.140858890480241605e+01 1.453658767299939036e+00 2.120163139381303097e+02 9.806969738768569300e+01
1.140231096438342107e+01 1.481465443247831359e+00 1.874179904342674376e+02 1.026349308641553080e+02
1.139520291420203435e+01 1.509111879593777461e+00 1.658543847170403183e+02 1.073284843293088784e+02
1.138712032863313617e+01 1.536585359985640054e+00 1.469049958472367052e+02 1.123720926370226039e+02
1.137810017886981662e+01 1.563795407784285496e+00 1.302972288584944067e+02 1.184434868524441526e+02
1.136807692467873387e+01 1.590704720628430380e+00 1.157040090652881617e+02 1.246855363565894805e+02
1.135701384045865758e+01 1.617328089043214456e+00 1.028630841109439729e+02 1.311030379434957638e+02
1.134491697529815646e+01 1.643578405310527124e+00 9.157286631365772678e+01 1.377009232359137059e+02
1.133167402323154427e+01 1.669520123346078577e+00 8.159520983545024819e+01 1.444842624750848188e+02
1.131733406350706517e+01 1.695081279822512776e+00 7.279295477616417998e+01 1.514582684170424614e+02
1.130185315523800327e+01 1.720266357149754510e+00 6.500530480897865004e+01 1.586283003384307335e+02
1.128513428241402217e+01 1.745055174993958458e+00 5.810342276332626454e+01 1.659998681549179480e+02
1.126721589675231883e+01 1.769405346501063514e+00 5.199073177654203448e+01 1.748669718069889143e+02
1.124813600735383723e+01 1.793218740321112614e+00 4.658591344567751236e+01 1.843017801394998685e+02
1.122778119740590341e+01 1.816516612250700824e+00 4.178916128390550710e+01 1.940017829039501862e+02
1.120621388431069931e+01 1.839238583584459574e+00 3.753720415246232278e+01 2.039744342090248779e+02
1.118336871539890609e+01 1.861431642093788863e+00 3.375165813150773175e+01 2.142273976841587739e+02
1.115924114597630989e+01 1.883054029347519531e+00 3.038059182662287228e+01 2.247685523687646878e+02
1.113378920840659347e+01 1.904127371122196655e+00 2.737209910300477134e+01 2.356059987669961515e+02
1.110705567200432675e+01 1.924603145950208205e+00 2.468600071669841611e+01 2.481478084011036174e+02
1.107904309772854212e+01 1.944400042104510007e+00 2.229306464414615618e+01 2.619030977219582041e+02
1.104979755532496277e+01 1.963500187105211570e+00 2.015859605274952671e+01 2.760450219387263360e+02
1.101926763260738262e+01 1.981902991204192110e+00 1.825311037134004266e+01 2.905844486194579872e+02
1.098741510557549006e+01 1.999635855836619180e+00 1.654121721672538570e+01 3.055325507987723199e+02
1.095423154134679500e+01 2.016669161387075970e+00 1.500748347562511142e+01 3.209008155639399433e+02
1.091974828974598211e+01 2.033038160880948908e+00 1.362840530935806527e+01 3.378508283286493565e+02
1.088406538110295863e+01 2.048530043263043776e+00 1.239745311542741568e+01 3.571538999979427444e+02
1.084704843189295076e+01 2.063139181186319782e+00 1.129611372851096718e+01 3.769995441229358448e+02
1.080862230964604365e+01 2.076857548620969052e+00 1.030769410823500998e+01 3.974030113784805849e+02
1.076878062700141925e+01 2.089687166099470250e+00 9.419560499342603421e+00 4.183799811067552241e+02
1.072750470012917567e+01 2.101657732098066500e+00 8.619010831762782487e+00 4.414338704989360167e+02
1.068489134087941039e+01 2.112481331352436875e+00 7.905165293722648201e+00 4.673011750545084624e+02
1.064075108936371095e+01 2.122091441422155444e+00 7.268507457143658534e+00 4.938955601077085475e+02
1.059483040236682427e+01 2.130472374750348230e+00 6.697961608759047891e+00 5.212374625018441066e+02
1.054731655016382064e+01 2.137502965686948198e+00 6.190194698911889226e+00 5.530108541940106761e+02
1.049801838335257642e+01 2.142826483727006792e+00 5.743468724560924166e+00 5.859436365539328335e+02
1.044669435643004540e+01 2.146391354515551519e+00 5.350392167884482575e+00 6.223735555178083132e+02
1.039351232398511904e+01 2.147589303480729850e+00 5.017298593976721399e+00 6.621356410737538454e+02
