# Radius[km]  Mass[Solar Mass] Lambda Central_pressure[MeV fm-3]
1.894247832007984300e+01 1.614571819909419170e-01 1.467845820401488431e+07 2.261181093503382922e+00
1.803330241063615347e+01 1.697334213771324596e-01 1.137715172464317828e+07 2.439634673305568491e+00
1.726507727472986176e+01 1.784162901150899982e-01 8.877921012516910210e+06 2.627672738981374767e+00
1.661184755318709705e+01 1.874886698049231526e-01 6.971423125907384790e+06 2.826007671556669987e+00
1.605156352285199617e+01 1.969627172343353938e-01 5.503589886701330543e+06 3.034662723785257477e+00
1.556884585445347646e+01 2.068250839111651918e-01 4.367263799864346161e+06 3.254088113949958228e+00
1.515064797366958516e+01 2.170715343645898132e-01 3.484670894938891288e+06 3.484755615820909203e+00
1.478598460586837859e+01 2.277092423410231881e-01 2.788717315799559001e+06 3.727159246864918618e+00
1.446733951402093865e+01 2.387256301414257542e-01 2.243210999380902853e+06 3.982203437093295051e+00
1.418761198273457858e+01 2.501253595983427003e-01 1.811497037685104646e+06 4.250498146089071838e+00
1.394112955135397947e+01 2.619116804462914838e-01 1.468162924707125174e+06 4.532233021325525080e+00
1.372371011790989570e+01 2.740717287558533943e-01 1.194435171985549387e+06 4.828005153814288519e+00
1.353108760641758046e+01 2.866092147418370928e-01 9.750359543139935704e+05 5.138437831003502154e+00
1.336003790357563226e+01 2.995256631326546626e-01 7.984138479080037214e+05 5.465297385322497092e+00
1.320799947124404206e+01 3.128184903906776060e-01 6.558901342828321503e+05 5.808286808439556914e+00
1.307266527039102399e+01 3.264820392697961315e-01 5.405235131840454414e+05 6.168090711221304367e+00
1.295198262642381515e+01 3.405198823491368820e-01 4.468144936232626787e+05 6.546067990315145302e+00
1.284405423107277500e+01 3.549240687107097503e-01 3.701575105842830380e+05 6.943342906309670326e+00
1.274763305144437631e+01 3.697000326094707634e-01 3.075497148860495654e+05 7.359902041579646337e+00
1.266138699758522357e+01 3.848414655856312039e-01 2.561759420186179632e+05 7.797509349867673301e+00
1.258413604145430575e+01 4.003413291692582421e-01 2.139278928010342352e+05 8.257197314830380108e+00
1.251486978880418377e+01 4.162073899524127985e-01 1.790352960690454347e+05 8.738997441426114676e+00
1.245278532152763695e+01 4.324218339834009495e-01 1.501968414215957164e+05 9.246135395984786953e+00
1.239706255708629890e+01 4.489852724743291223e-01 1.262819448137186700e+05 9.777526545777327271e+00
1.234693836563801739e+01 4.659051308172045824e-01 1.063959360100963822e+05 1.033642122213655057e+01
1.230192292938126286e+01 4.831624187276274407e-01 8.982233466185894213e+04 1.092234292616630142e+01
1.226144509951430450e+01 5.007601062065675235e-01 7.598867427940154448e+04 1.153872220674447213e+01
1.222494605613680463e+01 5.186850281372106242e-01 6.441127578145523148e+04 1.218504585435179699e+01
1.219204479133876617e+01 5.369697785195483020e-01 5.467939160006513703e+04 1.290646634909646373e+01
1.216242054908338766e+01 5.559000629532725446e-01 4.639431338516268443e+04 1.370826524736528818e+01
1.213634320368680086e+01 5.755222358917568837e-01 3.934652502823451505e+04 1.453258524150255226e+01
1.211390598652979200e+01 5.957986532771493149e-01 3.337129660566763050e+04 1.538005890877944104e+01
1.209496247523112977e+01 6.167215017056855153e-01 2.831468850393654429e+04 1.625133659443040202e+01
1.207937198533207912e+01 6.382672694874599317e-01 2.404069248204938776e+04 1.714708691072345559e+01
1.206695513858257485e+01 6.604148962147227131e-01 2.043111219417014945e+04 1.806799725004840695e+01
1.205756085068530759e+01 6.831319576764490753e-01 1.738350840977098051e+04 1.901477431241694305e+01
1.205085722508225921e+01 7.064179291843962760e-01 1.480580894738991810e+04 1.998814464777908029e+01
1.204667278271739761e+01 7.302373467996298162e-01 1.262749735185426471e+04 2.098885521357243178e+01
1.204476103057090342e+01 7.545667788398617848e-01 1.078586490871847673e+04 2.201767394793204247e+01
1.204491707110271115e+01 7.794006225647359676e-01 9.225215887749971444e+03 2.307539035900057200e+01
1.204683850479789164e+01 8.047116789986829000e-01 7.901477810108258382e+03 2.416281613079124568e+01
1.205038012525776203e+01 8.304728010111662728e-01 6.778075749134908619e+03 2.528078574606832163e+01
1.205528994738623894e+01 8.566758649588714913e-01 5.822282108606757902e+03 2.643015712672321271e+01
1.206138366802428941e+01 8.832931698105730423e-01 5.008790496555553545e+03 2.761181229213767452e+01
1.206845731906570407e+01 9.103097650466500657e-01 4.315061002431023553e+03 2.882665803603903498e+01
1.207628755500627804e+01 9.376975558717826065e-01 3.722595342303145117e+03 3.007562662236738760e+01
1.208487214132581045e+01 9.654530278745606653e-01 3.215838173344990082e+03 3.135967650068812063e+01
1.209386912419474847e+01 9.935670055963454761e-01 2.781459863143678831e+03 3.291097771508020742e+01
1.210356935545809165e+01 1.022229350291692374e+00 2.406429980380392863e+03 3.472484132445555360e+01
1.211409562496871750e+01 1.051425048773937609e+00 2.083222054730302716e+03 3.658965311588405456e+01
1.212530666246527922e+01 1.081125109714235588e+00 1.804641974574599772e+03 3.850684413260456296e+01
1.213723498557409997e+01 1.111305202108257673e+00 1.564609536290979804e+03 4.047788561329911516e+01
1.214970514758787523e+01 1.141911629344073198e+00 1.357767985753268476e+03 4.250429012111082017e+01
1.216266962477393498e+01 1.172934455761993178e+00 1.179350872144083496e+03 4.458761270437410218e+01
1.217600403188721181e+01 1.204329179077959999e+00 1.025440203656105723e+03 4.672945208994756428e+01
1.218962779037327060e+01 1.236067002866753306e+00 8.926051741283638421e+02 4.893145191006564687e+01
1.220339204468754879e+01 1.268119571670535795e+00 7.777962237555213960e+02 5.119530196365026598e+01
1.221722058561156388e+01 1.300445366570117667e+00 6.785091391511086840e+02 5.352273951305033961e+01
1.223097316156422742e+01 1.333014492091085579e+00 5.926176788302220757e+02 5.591555061720462305e+01
1.224463067105291536e+01 1.365818328885538779e+00 5.181327564714314349e+02 5.837557150225036651e+01
1.225797879038294802e+01 1.398801038266154873e+00 4.535233289897626605e+02 6.090468997063038614e+01
1.227099402341172585e+01 1.431944400083963398e+00 3.973948723946602399e+02 6.350484684977893579e+01
1.228357024596930103e+01 1.465217134054246362e+00 3.486114048162287418e+02 6.617803748149897558e+01
1.229558925875691067e+01 1.498585640842335920e+00 3.061346591586788008e+02 6.892631325317307756e+01
1.230703765857390763e+01 1.532027833806739237e+00 2.691098538797535866e+02 7.175178317198356126e+01
1.231778341737765636e+01 1.565497157444478038e+00 2.368173715657302694e+02 7.514063258413089841e+01
1.232773833479018677e+01 1.598927092485181500e+00 2.086458239373117749e+02 7.908498358781925219e+01
1.233697732744596109e+01 1.632283311036243356e+00 1.840706205675853084e+02 8.314012435099041909e+01
1.234541597864272156e+01 1.665533196899462443e+00 1.625848241844075233e+02 8.730916675967958440e+01
1.235298429501025552e+01 1.698655246280892817e+00 1.437804805175158265e+02 9.159531010723054578e+01
1.235965763204187517e+01 1.731615202232574813e+00 1.273100616712304856e+02 9.600184354941043807e+01
1.236537519764557835e+01 1.764388177137788283e+00 1.128607277974386989e+02 1.005321486284846912e+02
1.237008243534905283e+01 1.796955037003790112e+00 1.001579069437654113e+02 1.051897018681878251e+02
1.237371468441157418e+01 1.829272249413080864e+00 8.898915915117990494e+01 1.099780774415835793e+02
1.237627804594213998e+01 1.861340331501287970e+00 7.914736758037713571e+01 1.149009499138591792e+02
1.237765783081454707e+01 1.893112819276976388e+00 7.047493110890690104e+01 1.199620970621608365e+02
1.237785791956742010e+01 1.924575769163184846e+00 6.280253445735843343e+01 1.251654027746326676e+02
1.237682297243239304e+01 1.955704048247013382e+00 5.602613456706134087e+01 1.305148600308846483e+02
1.237450619066256863e+01 1.986478446361440220e+00 5.002398392630300350e+01 1.360145739661770961e+02
1.237087729401582514e+01 2.016822602799014152e+00 4.471454885050084727e+01 1.425840956719574706e+02
1.236570109569127141e+01 2.046370937696809111e+00 4.005027019886081519e+01 1.500933287048686111e+02
1.235876401021868531e+01 2.075052666010833047e+00 3.594641163154994246e+01 1.578134826524849927e+02
1.235005138087461063e+01 2.102906005993319560e+00 3.231875318315898937e+01 1.657504819057618022e+02
1.233944378448281753e+01 2.129901099305887779e+00 2.910610001126539359e+01 1.739104172611916397e+02
1.232691012930156838e+01 2.156031766208015732e+00 2.625464357694879070e+01 1.822995505948384505e+02
1.231242493510982605e+01 2.181328615802901716e+00 2.371460787760517164e+01 1.909243196676562491e+02
1.229597229330293473e+01 2.205785285466588697e+00 2.144654107371347251e+01 1.997913430657808931e+02
1.227748368436861348e+01 2.229405330525739970e+00 1.941916246772318644e+01 2.089074252795859081e+02
1.225699344088235065e+01 2.251888441900809390e+00 1.761905800954077606e+01 2.197260290348281728e+02
1.223368324897494297e+01 2.272120996410321059e+00 1.606870595281950287e+01 2.315592428862149177e+02
1.220674106818253435e+01 2.289993611308745347e+00 1.472308927536798251e+01 2.437248305337667489e+02
1.217584943457281099e+01 2.305529851948373121e+00 1.354688786499364461e+01 2.565843313923700748e+02
1.214078107455503464e+01 2.316970854027615712e+00 1.259023737555603439e+01 2.715019730275396341e+02
1.209931611214145342e+01 2.323447618179694363e+00 1.182877679647939750e+01 2.886612242051296562e+02
1.205086383744414746e+01 2.325756419082787740e+00 1.119740037129327881e+01 3.073527584630062961e+02
