# Radius[km]  Mass[Solar Mass] Lambda Central_pressure[MeV fm-3]
1.903306602919427704e+01 1.676464402827837208e-01 1.406868470455316082e+07 2.167032937867047870e+00
1.822190543293618248e+01 1.752915974828893886e-01 1.114331416474537365e+07 2.353794005976176607e+00
1.753061020063991648e+01 1.830221898234033751e-01 8.903914535036053509e+06 2.554340535284437941e+00
1.693389440961652070e+01 1.908237247654664126e-01 7.169930513727312908e+06 2.769966574885744048e+00
1.641338718560977838e+01 1.986819191988611899e-01 5.813488880220277235e+06 3.001739484313793227e+00
1.595411379021775744e+01 2.065915948029287130e-01 4.742305985931441188e+06 3.250874657647697230e+00
1.554489895347426476e+01 2.145524775727254974e-01 3.889276733913992997e+06 3.518631474991769537e+00
1.517710008097611940e+01 2.225624438855992038e-01 3.204147692780704703e+06 3.806345103022529930e+00
1.483995627489808378e+01 2.307498105081205453e-01 2.643966863799043000e+06 4.142164380213190000e+00
1.451953927267713595e+01 2.395672675319615863e-01 2.168554559655335266e+06 4.511247773271857220e+00
1.421824972027839706e+01 2.490851410028067925e-01 1.769042942287494428e+06 4.891144382284900338e+00
1.393900395433578687e+01 2.592872930822638922e-01 1.438513520395179745e+06 5.282171007307481680e+00
1.368242216392175337e+01 2.701549502690748228e-01 1.167903431333019864e+06 5.684653729840268177e+00
1.344869146320593423e+01 2.816607852368155362e-01 9.478012979123350233e+05 6.098928184752527848e+00
1.323667832279434364e+01 2.937875608513650927e-01 7.696245900220709154e+05 6.525339840171758610e+00
1.304528775167006138e+01 3.065102248521930917e-01 6.257081212972101057e+05 6.964244285573490068e+00
1.287297552096003628e+01 3.198099244095215510e-01 5.096347208371999441e+05 7.416007528311341801e+00
1.271831205607431592e+01 3.336588208458767246e-01 4.160203084606881603e+05 7.881006298834637214e+00
1.257959230426010322e+01 3.480456178995375294e-01 3.404191016337097390e+05 8.359628364848195048e+00
1.245545223989619465e+01 3.629513964962465256e-01 2.793217364978859550e+05 8.852272854676176195e+00
1.234446883269409945e+01 3.783559080575581435e-01 2.297601737692651513e+05 9.359350590099690947e+00
1.224524352099144942e+01 3.942461629938063816e-01 1.895198103863700526e+05 9.881284428945651399e+00
1.215655311111051873e+01 4.106047698754801689e-01 1.567483173960501153e+05 1.041850961771275585e+01
1.207728002901399300e+01 4.274203188827801481e-01 1.299927934035833459e+05 1.097147415452834451e+01
1.200646989242512319e+01 4.446745540623162629e-01 1.080796893141635665e+05 1.154063916273915780e+01
1.194295872875759024e+01 4.624402347194859209e-01 9.001551548139241640e+04 1.227334831103635260e+01
1.188617843515181072e+01 4.809378590755211680e-01 7.496283350977102236e+04 1.309663399744195900e+01
1.183596593972176159e+01 5.001784083962538263e-01 6.244876438497319759e+04 1.394403988564117824e+01
1.179224876558880375e+01 5.201189026090832224e-01 5.206037449604339054e+04 1.481627263693540897e+01
1.175453040209411526e+01 5.407470013068991221e-01 4.345107674511703954e+04 1.571405961602642165e+01
1.172249930027039078e+01 5.620262609236785778e-01 3.631354054608059960e+04 1.663814949757393080e+01
1.169576719001792497e+01 5.839491644007664961e-01 3.039978730284108678e+04 1.758931289052390312e+01
1.167382318241214278e+01 6.064834141234555220e-01 2.548709731528073098e+04 1.856834298072791611e+01
1.165627505655635865e+01 6.296122845476297414e-01 2.140923575272762901e+04 1.957605619238988481e+01
1.164265159050617982e+01 6.533091295899253748e-01 1.801458315771110210e+04 2.061329286889126777e+01
1.163257879704626596e+01 6.775529101747536087e-01 1.518630934551725659e+04 2.168091797356293426e+01
1.162579183003404992e+01 7.023268841073432300e-01 1.282792164849654910e+04 2.277982181098782632e+01
1.162164639069798078e+01 7.276123804045125931e-01 1.085287802299519353e+04 2.391092076943587585e+01
1.161998259625397090e+01 7.533753748373025472e-01 9.199925109376867113e+03 2.507515808505062793e+01
1.162051837204944960e+01 7.796106747673853254e-01 7.812550891375854007e+03 2.627350462842433743e+01
1.162285989535978814e+01 8.062929200935570195e-01 6.645607999968643526e+03 2.750695971421795250e+01
1.162682262430606883e+01 8.333993132467443221e-01 5.662781028256912577e+03 2.877655193450083004e+01
1.163210759623483703e+01 8.609115230616088965e-01 4.833802716312849952e+03 3.008334001650521117e+01
1.163850153133591903e+01 8.888356952231399877e-01 4.131926623807388751e+03 3.175290905569862332e+01
1.164599916071584396e+01 9.172098386601940101e-01 3.536652760532613684e+03 3.357018055416149593e+01
1.165446079657947287e+01 9.460090909203952014e-01 3.031136018913775388e+03 3.544069354094430935e+01
1.166373092216615603e+01 9.752077728046896210e-01 2.601265677239886827e+03 3.736600785786538381e+01
1.167369905278338749e+01 1.004773279048604584e+00 2.235563170985740271e+03 3.934772904618857581e+01
1.168416227395255724e+01 1.034676431670067620e+00 1.924142712350104830e+03 4.138750968550230169e+01
1.169499332540447512e+01 1.064888832918883921e+00 1.658482994969811898e+03 4.348705077182413703e+01
1.170604061486224090e+01 1.095389150882411622e+00 1.431454099131818793e+03 4.564810313608060000e+01
1.171714737922297012e+01 1.126138139506794644e+00 1.237338033110661172e+03 4.787246890414472489e+01
1.172823152175090300e+01 1.157119979777657237e+00 1.070929356916700726e+03 5.016200299964909703e+01
1.173910914189402810e+01 1.188302431899483036e+00 9.282153681750779697e+02 5.251861469082750489e+01
1.174966237152301041e+01 1.219653969826769213e+00 8.056043116838844753e+02 5.494426918267529913e+01
1.175981131901232679e+01 1.251160453484937207e+00 6.999466093489386367e+02 5.744098925575582371e+01
1.176944778678637604e+01 1.282783559616042623e+00 6.090130050290578083e+02 6.001085695301988920e+01
1.177842914111485584e+01 1.314498400950041113e+00 5.304749427876993195e+02 6.300396789093961303e+01
1.178669395250967256e+01 1.346231987995518908e+00 4.627453454916679334e+02 6.648930471114660179e+01
1.179432296484868381e+01 1.377984724831024410e+00 4.042206563779639623e+02 7.007675314195280691e+01
1.180106864182113213e+01 1.409702631597899325e+00 3.535529850898432755e+02 7.376930479695454324e+01
1.180698355086184748e+01 1.441368045531415953e+00 3.096412224779767826e+02 7.757003893650902171e+01
1.181196448156715384e+01 1.472943536622661531e+00 2.715591569160301901e+02 8.148212503556398190e+01
1.181592694486691641e+01 1.504410428472634953e+00 2.384432252744564948e+02 8.550882542671875797e+01
1.181885161978040166e+01 1.535754524049633751e+00 2.096086952894050626e+02 8.965349802071982310e+01
1.182063308255996681e+01 1.566925155031024364e+00 1.844902877410957558e+02 9.391959910666069788e+01
1.182126569783130066e+01 1.597914351879599071e+00 1.625613240656447829e+02 9.831068623421995767e+01
1.182061995479815941e+01 1.628696140221220778e+00 1.433952751086570743e+02 1.028304211803420714e+02
1.181870023128547764e+01 1.659239465906874100e+00 1.266086701616760166e+02 1.076517098427046903e+02
1.181539739515650922e+01 1.689369589904760938e+00 1.119686134240551354e+02 1.136525956198092189e+02
1.181059981075743615e+01 1.718968814930549982e+00 9.920444870630649348e+01 1.198292922706777119e+02
1.180415165271977784e+01 1.748013003000399301e+00 8.803479798939555678e+01 1.261869506121197446e+02
1.179607382649862046e+01 1.776508894996151833e+00 7.824737728816120352e+01 1.327308723669341077e+02
1.178629369556728612e+01 1.804421726183472963e+00 6.964350407014426025e+01 1.394665145850751173e+02
1.177475574707416150e+01 1.831764351348168507e+00 6.206703948433175100e+01 1.463994941943477102e+02
1.176143368597329975e+01 1.858541859487971681e+00 5.537748008978991265e+01 1.535355926844268311e+02
1.174632606597847406e+01 1.884706107643727924e+00 4.946929927631560275e+01 1.608807609281066959e+02
1.172938929914027817e+01 1.910116748220078930e+00 4.426396154652278625e+01 1.697867896548590352e+02
1.171032545539128300e+01 1.934392172755571293e+00 3.970687317747125178e+01 1.792796398914810538e+02
1.168899833885458150e+01 1.957535082419637362e+00 3.570758031716464131e+01 1.890506067856435664e+02
1.166518687475703508e+01 1.979543711409910145e+00 3.217612013574050422e+01 1.991078384565387296e+02
1.163885162009035135e+01 2.000427757113149241e+00 2.904941071626549132e+01 2.094597217427756561e+02
1.161002006741745873e+01 2.020225873988932275e+00 2.627270127051054160e+01 2.208067387923919114e+02
1.157864036419694642e+01 2.038604299515849316e+00 2.382597877576460377e+01 2.338067863447720072e+02
1.154441518923089660e+01 2.055411099531712527e+00 2.167169251084517256e+01 2.471877026228788452e+02
1.150717456331159738e+01 2.070698825730870940e+00 1.976210504757547071e+01 2.609606461232983179e+02
1.146691113943574969e+01 2.084494894298410728e+00 1.806268327912537686e+01 2.762925307116396993e+02
1.142361717461472281e+01 2.096646256651371498e+00 1.655623968237609134e+01 2.932380265882434287e+02
1.137720215158189951e+01 2.107159994683061033e+00 1.521682223625150243e+01 3.106799829120354843e+02
1.132755518829891628e+01 2.116077365791436460e+00 1.401708980551462602e+01 3.295742972327085454e+02
1.127487666756036511e+01 2.123305026566507880e+00 1.294934631161565264e+01 3.507382807548248138e+02
1.121906558531158993e+01 2.128872892707854625e+00 1.199407484046655981e+01 3.725223158115905449e+02
1.116012716363620783e+01 2.132797058169444426e+00 1.113706276860582634e+01 3.970777514956810137e+02
1.109820875302709275e+01 2.135012446255907026e+00 1.037156039464145074e+01 4.232083195957007433e+02
1.103307292396665140e+01 2.135542364812987870e+00 9.682638320420378975e+00 4.515916231818374058e+02
