# Radius[km]  Mass[Solar Mass] Lambda Central_pressure[MeV fm-3]
1.936452362056840215e+01 1.540039869950582396e-01 1.683640416334051639e+07 2.348405113244060871e+00
1.838357030165415651e+01 1.611461966790024847e-01 1.313942215345026366e+07 2.544877418602529140e+00
1.755157539399912991e+01 1.685704200219362014e-01 1.033394831211394258e+07 2.753283061898218254e+00
1.683992669807475551e+01 1.762581737249400704e-01 8.182363349890901707e+06 2.974782843047321546e+00
1.622650884027268603e+01 1.841912083693884872e-01 6.520091931381499395e+06 3.210216925346652150e+00
1.569429343282284961e+01 1.923378062664905241e-01 5.227341792482552119e+06 3.460351120217905141e+00
1.522991816400011444e+01 2.006732412589671832e-01 4.215780556966003031e+06 3.726342554669149987e+00
1.482200671065091946e+01 2.091666240157464274e-01 3.419932423531228676e+06 4.009447710182101332e+00
1.446209862170102234e+01 2.177661804070451512e-01 2.790986271936164238e+06 4.311536159026565507e+00
1.414346877608796937e+01 2.264064959819738210e-01 2.293131452907267492e+06 4.634161973144390601e+00
1.386022379262497495e+01 2.349977115957786744e-01 1.898593051337161101e+06 4.980274132958771638e+00
1.360895411818907164e+01 2.433783749229587734e-01 1.584460943604739383e+06 5.353935702959369713e+00
1.339185811583914187e+01 2.510656697374711310e-01 1.344731330370269250e+06 5.769071807193588697e+00
1.319040544330588816e+01 2.583911923687234879e-01 1.148975017744058277e+06 6.275207971627477122e+00
1.298516829079129131e+01 2.665451986033826048e-01 9.694985180567624047e+05 6.795605933967141965e+00
1.278280816305761647e+01 2.755705161880473431e-01 8.105143601171894697e+05 7.330667560140780914e+00
1.258810839697675732e+01 2.854585540974161617e-01 6.730478201731313020e+05 7.880806039769781002e+00
1.240410305851051476e+01 2.962061097125747167e-01 5.562925620580224786e+05 8.446446205245397465e+00
1.223272287088698995e+01 3.077883524121213799e-01 4.587042454417288536e+05 9.028024859796243362e+00
1.207502201366132866e+01 3.201854318392465815e-01 3.777002676572897471e+05 9.625991114800010351e+00
1.193126004340263258e+01 3.333783242090346266e-01 3.110131442419465166e+05 1.024080673659993401e+01
1.180150761862340403e+01 3.473343906048068086e-01 2.563614416076272901e+05 1.087294650309369004e+01
1.168519349633509208e+01 3.620392502239201948e-01 2.115797528921514458e+05 1.152289857037021470e+01
1.158174855084503818e+01 3.774661951457263243e-01 1.749871402793994348e+05 1.219116484967765324e+01
1.149035502154350397e+01 3.935972569590385217e-01 1.450677783638964174e+05 1.287826139501318679e+01
1.141017017492348451e+01 4.104098204297257357e-01 1.205423778745656746e+05 1.358471880163453527e+01
1.134033773771048459e+01 4.278837426246447362e-01 1.004292508023223054e+05 1.431108261580047980e+01
1.128000917456101249e+01 4.460014580196307588e-01 8.389699144701470505e+04 1.505791375605699933e+01
1.122831364332361481e+01 4.647444365828987678e-01 7.024995419249360566e+04 1.582578894639440037e+01
1.118447640326519910e+01 4.840967402141220788e-01 5.897536581967504026e+04 1.661530116160969683e+01
1.114778439221859152e+01 5.040406634306341394e-01 4.963122339795115840e+04 1.742706008521845007e+01
1.111748355563652524e+01 5.245593228748415271e-01 4.185048058846511412e+04 1.826169258026954623e+01
1.109298721737191862e+01 5.456368453699353971e-01 3.537505104003133602e+04 1.911984317342638562e+01
1.107369742482470620e+01 5.672558271995669088e-01 2.995839464046734429e+04 2.000217455268851907e+01
1.105903113371132740e+01 5.894067599714662986e-01 2.541911934317290797e+04 2.090936807913794127e+01
1.104848206532277111e+01 6.120684777593777826e-01 2.160462597034812643e+04 2.184212431310526981e+01
1.104176078054194932e+01 6.353934284682346556e-01 1.837754556947867968e+04 2.312101418717387702e+01
1.103888505606436254e+01 6.595255934198598347e-01 1.563193787650165177e+04 2.444160101019385678e+01
1.103980026024487948e+01 6.844479116055752765e-01 1.330018743433395321e+04 2.579939904970141740e+01
1.104430005572106133e+01 7.101241564535709649e-01 1.132295458653095011e+04 2.719545683549284831e+01
1.105217585488275489e+01 7.365322917293689597e-01 9.646806331272769967e+03 2.863085244261548112e+01
1.106321473773108188e+01 7.636497033234660448e-01 8.226282357444108129e+03 3.010669432388753464e+01
1.107711038138928039e+01 7.914458261392164351e-01 7.022191397967628291e+03 3.162412216587657099e+01
1.109365031083829578e+01 8.198964301717827086e-01 6.000303735091301860e+03 3.318430776899746348e+01
1.111255558993762449e+01 8.489763480581909993e-01 5.133570522892901863e+03 3.478845595240961330e+01
1.113367368472023067e+01 8.786689596808410219e-01 4.397369252298901301e+03 3.643780548441210243e+01
1.115665396881232674e+01 9.089390411474579379e-01 3.771347599245655601e+03 3.813363003905543991e+01
1.118139940679095368e+01 9.397674924744560121e-01 3.238496047494840241e+03 3.987723917970843956e+01
1.120758593429792249e+01 9.711345616773986444e-01 2.784232466713430767e+03 4.166997937033983135e+01
1.123517481408964080e+01 1.003008069018512138e+00 2.396863738949053641e+03 4.351323501529558513e+01
1.126380491477516799e+01 1.035365425852491361e+00 2.066138977991850879e+03 4.540842952837479629e+01
1.129341397052110807e+01 1.068183318874807552e+00 1.783024069108147614e+03 4.735702643202991879e+01
1.132369196423192648e+01 1.101432349145579304e+00 1.540622855014409879e+03 4.936053048753983319e+01
1.135466755697575536e+01 1.135092596616192662e+00 1.332852073873471909e+03 5.142048885702879346e+01
1.138612909790588468e+01 1.169136828715138021e+00 1.154564032281158688e+03 5.353849229822851186e+01
1.141791717314726107e+01 1.203538640054715003e+00 1.001247383752893484e+03 5.571617639290601431e+01
1.144992172375156336e+01 1.238273879494975027e+00 8.693178380202210747e+02 5.795522280990575581e+01
1.148197437833745127e+01 1.273310697229105948e+00 7.556342110667154657e+02 6.025736060378159209e+01
1.151404900065002757e+01 1.308629203197686719e+00 6.575632600882141787e+02 6.262436755002129019e+01
1.154592188049684864e+01 1.344198006709600213e+00 5.728453469252189052e+02 6.505807151789473153e+01
1.157756706018581383e+01 1.379994901640415161e+00 4.995808588026265511e+02 6.756035188198585217e+01
1.160888429396146826e+01 1.415984714365294828e+00 4.361452212627770564e+02 7.013314097349856979e+01
1.163973851484025701e+01 1.452149245452227566e+00 3.811136568962535307e+02 7.277842557245719490e+01
1.166989506352977379e+01 1.488287917742721289e+00 3.335679055955368426e+02 7.626573980957216747e+01
1.169883511122263364e+01 1.524080355227193539e+00 2.926443416895743894e+02 7.997791926818520380e+01
1.172638682474147842e+01 1.559510140178829163e+00 2.572861494799353750e+02 8.379469973527972115e+01
1.175248102256631633e+01 1.594575417602971834e+00 2.266448496794476739e+02 8.771902863597283329e+01
1.177701862346487260e+01 1.629250011950762467e+00 2.000098998599891615e+02 9.175393644730371534e+01
1.179995631560262304e+01 1.663536933816311292e+00 1.767978139039351220e+02 9.590253903845353989e+01
1.182120410386056442e+01 1.697409162089933643e+00 1.565026919140306632e+02 1.001680400769066779e+02
1.184072425433539699e+01 1.730867295267187078e+00 1.387511170615881611e+02 1.045537335024131806e+02
1.185850969579332848e+01 1.763897138458403679e+00 1.231598388504426111e+02 1.090630060706613307e+02
1.187452285417335496e+01 1.796487888032697988e+00 1.094622509857691313e+02 1.136993399686257504e+02
1.188871997920674595e+01 1.828628553685444524e+00 9.739798707387542720e+01 1.184663155036098914e+02
1.190110332593914677e+01 1.860315321144555334e+00 8.676009497723681818e+01 1.233676138680598484e+02
1.191160201611039504e+01 1.891509527989728268e+00 7.735825584823079737e+01 1.286823469639529094e+02
1.191986059175961543e+01 1.921793124980096579e+00 6.913944325853186967e+01 1.352227200837006933e+02
1.192543573564597459e+01 1.950924780467882869e+00 6.195755853036419580e+01 1.419473864553771705e+02
1.192834001243693187e+01 1.978959705865501073e+00 5.564443106094814340e+01 1.488615390552980955e+02
1.192840049026080784e+01 2.005893826186198048e+00 5.008332704832316296e+01 1.559705171863685393e+02
1.192564536947439535e+01 2.031747110128543810e+00 4.515918830872034562e+01 1.632798106012429002e+02
1.192003759770165594e+01 2.056544863561935443e+00 4.078792748998452566e+01 1.707950637416658992e+02
1.191160409957475075e+01 2.080316267972842859e+00 3.689070729497031920e+01 1.788334942701454793e+02
1.190038394941642963e+01 2.103039668611411894e+00 3.341745279834036353e+01 1.885540792629666669e+02
1.188650296780763327e+01 2.124743910214364817e+00 3.031435475795974455e+01 1.985485688459662015e+02
1.187008563949981976e+01 2.145483820562972710e+00 2.753322850164514435e+01 2.088246810448157476e+02
1.185103776015215260e+01 2.165235386306636034e+00 2.503641823894234619e+01 2.193903513620838339e+02
1.182948487312463826e+01 2.184053240903006454e+00 2.278940238148603115e+01 2.302537389052543517e+02
1.180544184673487074e+01 2.201948838560924049e+00 2.076467785470107685e+01 2.414232326874173111e+02
1.177899391636365145e+01 2.218879402095078390e+00 1.893954779541070366e+01 2.544918856950714314e+02
1.175008312666897226e+01 2.234586742040962637e+00 1.730973494196552309e+01 2.687215605530180937e+02
1.171863256302052214e+01 2.249076280396746341e+00 1.584815353886552991e+01 2.833521961826888855e+02
1.168451211091664099e+01 2.262337598637338854e+00 1.453415214135044131e+01 2.983950907719956831e+02
1.164776799924455197e+01 2.274429895117165312e+00 1.334762549912343133e+01 3.138618608668013508e+02
1.160847882343182746e+01 2.285204145978400270e+00 1.228288327978038197e+01 3.322519709092237008e+02
1.156650767329477247e+01 2.294332234985538399e+00 1.133790364810963425e+01 3.514626703680738160e+02
1.152153721352438787e+01 2.301814449854898026e+00 1.049418258356992695e+01 3.712146848574698765e+02
1.147359932130488680e+01 2.307600175484187943e+00 9.740637999580114226e+00 3.936389116426587975e+02
1.142264835311008042e+01 2.311366963727743418e+00 9.077987263211403146e+00 4.175870535446265421e+02
1.136836164951043315e+01 2.313083014024049699e+00 8.493199296026158862e+00 4.436204013550324134e+02
