# Radius[km]  Mass[Solar Mass] Lambda Central_pressure[MeV fm-3]
1.928910233750439218e+01 1.609699319948856566e-01 1.560709007216464356e+07 2.243757998800455233e+00
1.841125554666130881e+01 1.680163096171615744e-01 1.235603401309112087e+07 2.439160160374505004e+00
1.765782525145375814e+01 1.752308844978369140e-01 9.853035895512767136e+06 2.650372048578962580e+00
1.698664673005518821e+01 1.828765972911737814e-01 7.850121721927495673e+06 2.911028763201133351e+00
1.637943809097243530e+01 1.911775096443217026e-01 6.235551267561679706e+06 3.179224901308031370e+00
1.583666968058742697e+01 2.001150818520956998e-01 4.933865195572128519e+06 3.455178538641782371e+00
1.535475517240755572e+01 2.096671815805317418e-01 3.909582925785659812e+06 3.739114058725127698e+00
1.492897297434862658e+01 2.198105245780244410e-01 3.102122432509168517e+06 4.031262335312246314e+00
1.455352634360039232e+01 2.305279152575604451e-01 2.466769866546357051e+06 4.331860920116884728e+00
1.422321820275625548e+01 2.417977509061771668e-01 1.967326637303098338e+06 4.641154235970499364e+00
1.393292623524382634e+01 2.535958872647910978e-01 1.574586728938864544e+06 4.959393775567468410e+00
1.367765544471221340e+01 2.659079471276287188e-01 1.264797067236164818e+06 5.286838305958875495e+00
1.345327986060796199e+01 2.787150882003233132e-01 1.019894852764380630e+06 5.623754078961296976e+00
1.325578911813446226e+01 2.920025082640876346e-01 8.255284564801284578e+05 5.970415047651587592e+00
1.308208387334940603e+01 3.057575194916432593e-01 6.708870728921941482e+05 6.327103089123681912e+00
1.292905382386285140e+01 3.199695801156358099e-01 5.471541302271654131e+05 6.694108233688605303e+00
1.279414323418920496e+01 3.346236489779506607e-01 4.479621604123259895e+05 7.071728900704034260e+00
1.267510974102230925e+01 3.497050452459369296e-01 3.680077974853012129e+05 7.460272141225167353e+00
1.256998532558628412e+01 3.652074671021217078e-01 3.033410079656901653e+05 7.860053887674152584e+00
1.247719611223707226e+01 3.811222158186399200e-01 2.508220543467018870e+05 8.271399210731214424e+00
1.239506265868743284e+01 3.974366247736080826e-01 2.080295663790007529e+05 8.694642583656207790e+00
1.232240179268952573e+01 4.141456057358284260e-01 1.730354382970691659e+05 9.130128154255693573e+00
1.225800532131956544e+01 4.312595734346171272e-01 1.442902274664577271e+05 9.654559584020722340e+00
1.220069720884294107e+01 4.490076723955388482e-01 1.203573104590923176e+05 1.031094422378373032e+01
1.215040036285281921e+01 4.674107960371647885e-01 1.004455973826254485e+05 1.098631460797775716e+01
1.210680021380533056e+01 4.864534210679593018e-01 8.390885999206834822e+04 1.168121989401715410e+01
1.206935571243115390e+01 5.061202592049540705e-01 7.016920926975292969e+04 1.239622512354281803e+01
1.203781640597510894e+01 5.263857505203668463e-01 5.876941481526983989e+04 1.313191168186910751e+01
1.201156278884539930e+01 5.472304757628368987e-01 4.929708031016986206e+04 1.388887777071998819e+01
1.199022510270165398e+01 5.686502997725607633e-01 4.141676265378374228e+04 1.466773889463909164e+01
1.197326952708338510e+01 5.906083540196822579e-01 3.485861482350434380e+04 1.546912836146902848e+01
1.196026640823424003e+01 6.130935805996343690e-01 2.939236618908121818e+04 1.629369779730681600e+01
1.195081473587309340e+01 6.360911307359452538e-01 2.482775558656672729e+04 1.714211767635437411e+01
1.194460206977413108e+01 6.595913112278675161e-01 2.100895658270115746e+04 1.801507786609475659e+01
1.194110952292598959e+01 6.835658367479298114e-01 1.780676425019115413e+04 1.891328818823744129e+01
1.194015429973683595e+01 7.080014931135525380e-01 1.512248439037513526e+04 1.983747899588883001e+01
1.194128174910446916e+01 7.328877516984636520e-01 1.286351429231749535e+04 2.078840176741720214e+01
1.194421005304568162e+01 7.582006564885482858e-01 1.096020614187413230e+04 2.176682971749512419e+01
1.194877386215256188e+01 7.839278391274379088e-01 9.354673441736704262e+03 2.277355842581602374e+01
1.195464658385313683e+01 8.100517882097928446e-01 7.996922424629348825e+03 2.380940648399624138e+01
1.196159533984876333e+01 8.365575969742541362e-01 6.846587979732810709e+03 2.487521616118853984e+01
1.196943690566283536e+01 8.634378015277967000e-01 5.870315740008640205e+03 2.616804244732826490e+01
1.197807743521285140e+01 8.907321432577847142e-01 5.039181050241957564e+03 2.768165606620939556e+01
1.198747278183291343e+01 9.184255518278611197e-01 4.331184810781997840e+03 2.923905054100107037e+01
1.199747942810808432e+01 9.464978176028968626e-01 3.727248292180724548e+03 3.084149222086956144e+01
1.200798368747473965e+01 9.749183536553122087e-01 3.211773027137679946e+03 3.249028408378093502e+01
1.201880242272724431e+01 1.003665243159800102e+00 2.771397379163840924e+03 3.418676679597920298e+01
1.202983022547369529e+01 1.032710051174273280e+00 2.394575607224038777e+03 3.593231980210919119e+01
1.204094582097688537e+01 1.062039504232352494e+00 2.071600079342795652e+03 3.772836244687104568e+01
1.205195930587453645e+01 1.091620140954869367e+00 1.794486293907934396e+03 3.957635512911848252e+01
1.206282679726516527e+01 1.121429552948046471e+00 1.556494764458404006e+03 4.147780048933866937e+01
1.207337708195006165e+01 1.151446561651886524e+00 1.351759231752077994e+03 4.343424463147994885e+01
1.208348761564468177e+01 1.181645456417230067e+00 1.175428344513419233e+03 4.544727838012029508e+01
1.209308180350169337e+01 1.212003524327315063e+00 1.023205021758728776e+03 4.751853857399933645e+01
1.210205446482421898e+01 1.242500567081868956e+00 8.917913842885114946e+02 4.964970939696519281e+01
1.211034137864295701e+01 1.273110642573610951e+00 7.780629631194642570e+02 5.184957793608204923e+01
1.211781621355808447e+01 1.303792381953778889e+00 6.796498536496868610e+02 5.477024161336353814e+01
1.212446443258353845e+01 1.334486678369175339e+00 5.944529839780896054e+02 5.777538468090893531e+01
1.213021607022188775e+01 1.365187116073324880e+00 5.206018239290774545e+02 6.086745068175093820e+01
1.213503309292884147e+01 1.395849942397350718e+00 4.564828668424700595e+02 6.404895383772962703e+01
1.213884597295439427e+01 1.426461695528281837e+00 4.007664311546175213e+02 6.732248109385731993e+01
1.214158109159921572e+01 1.457003752776065753e+00 3.522469516370487099e+02 7.069069422181657103e+01
1.214321202356274298e+01 1.487441910664184741e+00 3.099571158214839102e+02 7.415633198430057860e+01
1.214365074605193051e+01 1.517757281161504546e+00 2.730389632009699312e+02 7.772221236195724714e+01
1.214284008350906596e+01 1.547931571079453228e+00 2.407630844351744202e+02 8.139123484474626480e+01
1.214073614640527587e+01 1.577934883720117698e+00 2.125244558702462143e+02 8.516638278957383079e+01
1.213731745041176247e+01 1.607746293037767060e+00 1.877773278346975303e+02 8.905072584612072717e+01
1.213250838361860851e+01 1.637329508695470892e+00 1.660720993865545552e+02 9.379235229921116002e+01
1.212628280785612134e+01 1.666549075165438154e+00 1.470850093737480506e+02 9.899025362179791898e+01
1.211864807121948218e+01 1.695425380827665807e+00 1.304226206411874500e+02 1.043385028046329666e+02
1.210954618059817811e+01 1.723892005797533766e+00 1.158093271363709960e+02 1.098414486180524108e+02
1.209892939410067036e+01 1.751972410261575019e+00 1.029430852703147110e+02 1.155035656193731057e+02
1.208677502897385914e+01 1.779660721964390069e+00 9.160172134403477173e+01 1.213294577912467815e+02
1.207309243648216857e+01 1.806903880886632896e+00 8.159362686603286363e+01 1.273238622852518773e+02
1.205782170366206962e+01 1.833712791103115913e+00 7.275001316334946466e+01 1.334916532737676960e+02
1.204091827330211473e+01 1.860061255425939475e+00 6.492646716498779824e+01 1.398378459132639478e+02
1.202245347169855272e+01 1.885908056074713013e+00 5.800310603422927613e+01 1.472988123938220610e+02
1.200237489472802288e+01 1.911138154260037636e+00 5.188521869922335839e+01 1.556469956817233822e+02
1.198070598986107704e+01 1.935698733143360606e+00 4.648052411358354874e+01 1.642366478657045832e+02
1.195735640352114970e+01 1.959674734914711003e+00 4.167998110436592896e+01 1.730747533668980793e+02
1.193243268770493870e+01 1.982983967459573060e+00 3.741928603481535021e+01 1.821684986288886705e+02
1.190581184882304022e+01 2.005630500175904718e+00 3.363308638730448763e+01 1.915252779611573999e+02
1.187749735090208780e+01 2.027615132502970763e+00 3.025886148867760994e+01 2.011526995515444582e+02
1.184753888074824424e+01 2.048964116266960289e+00 2.724702465616017832e+01 2.110734641769948041e+02
1.181594692189307061e+01 2.069559830445335979e+00 2.456262795153052636e+01 2.235756911291930749e+02
1.178277379829423666e+01 2.089341535197084099e+00 2.217544466380551782e+01 2.364395415432359755e+02
1.174800565944891595e+01 2.108322492952910299e+00 2.004659455125830192e+01 2.496754752778880402e+02
1.171161073133018604e+01 2.126499552240837865e+00 1.814246836389915174e+01 2.632942547404392144e+02
1.167358712392409181e+01 2.143867737533575735e+00 1.643841367607372206e+01 2.773069536378382622e+02
1.163392403741230652e+01 2.160468236892170601e+00 1.490769410283478535e+01 2.917249659809488662e+02
1.159263986677164837e+01 2.176255046833863727e+00 1.353377716957200505e+01 3.083131720809328158e+02
1.154989738164964486e+01 2.191076245884174600e+00 1.230693556071460826e+01 3.268067632137313012e+02
1.150562160411434753e+01 2.204917349939172322e+00 1.120986195189487944e+01 3.458352763626594992e+02
1.145971263483293434e+01 2.217807868859908105e+00 1.022451340265900832e+01 3.654141839993048961e+02
1.141217344613040652e+01 2.229752110204952231e+00 9.337243221440910901e+00 3.855594061322218522e+02
1.136298842339815884e+01 2.240754526877183572e+00 8.537968592620803321e+00 4.073252174239193550e+02
1.131242528616296994e+01 2.250530223320655221e+00 7.826738061526903323e+00 4.326285014426263160e+02
1.126020399366719893e+01 2.258916689853182280e+00 7.194695626465787086e+00 4.586636759635518388e+02
1.120600576255181124e+01 2.265905055231361320e+00 6.629813754390221803e+00 4.854519107173454131e+02
1.115005843144652253e+01 2.271355066102879849e+00 6.129050892421743946e+00 5.161256595226259378e+02
1.109236026946246412e+01 2.274635721685964285e+00 5.697696841409379154e+00 5.487317086024122545e+02
1.103280038855378997e+01 2.275339921748079419e+00 5.333790207493096958e+00 5.855128866210699243e+02
