# Radius[km]  Mass[Solar Mass] Lambda Central_pressure[MeV fm-3]
1.886542066282726182e+01 1.694163736300671463e-01 1.344752784585210495e+07 2.155463763392041265e+00
1.801182820448566346e+01 1.782566632355801206e-01 1.041118697645421140e+07 2.339545107808593816e+00
1.729028749187072478e+01 1.874300488443048918e-01 8.121299650970171206e+06 2.535409831583268048e+00
1.667514458749598205e+01 1.969188305034065556e-01 6.376354963394168764e+06 2.743661979021382091e+00
1.614558077600812780e+01 2.067274671574612366e-01 5.036812116102310829e+06 2.965000948429474814e+00
1.568590061025408389e+01 2.168582302286495012e-01 3.998969505958452821e+06 3.200192198543944322e+00
1.528419426582166096e+01 2.273136570190212313e-01 3.190619784518605098e+06 3.450035835107101878e+00
1.493094908256039766e+01 2.380939544141954800e-01 2.555899760640405118e+06 3.715226997583664925e+00
1.461857220687795333e+01 2.492044632455557296e-01 2.056223913107719738e+06 3.996598865749386942e+00
1.434095293983677699e+01 2.606478964157232792e-01 1.659974105445732130e+06 4.295025757480596340e+00
1.409332495875377589e+01 2.724250233016881073e-01 1.345116504186347360e+06 4.611426331033365855e+00
1.387056703274470593e+01 2.845962043555837484e-01 1.092476897265858483e+06 4.978544306845515521e+00
1.366790113232153558e+01 2.973844013608633041e-01 8.865956646838955348e+05 5.382737092258460088e+00
1.348454828173337816e+01 3.107997045144718640e-01 7.196838056264747865e+05 5.799142618385249470e+00
1.331957079516506681e+01 3.248220051928439323e-01 5.847674001141897170e+05 6.228129894869596228e+00
1.317170161422338026e+01 3.394262638377156804e-01 4.759684097961615189e+05 6.670079081032470825e+00
1.303952892432659816e+01 3.545985456498434440e-01 3.881087251108139171e+05 7.125381822761124084e+00
1.292160870109290727e+01 3.703198623725642014e-01 3.172009988635292393e+05 7.594441599577250734e+00
1.281664020941243898e+01 3.865745127405825210e-01 2.598740750222172646e+05 8.077674082191910188e+00
1.272328311050474703e+01 4.033496929729682989e-01 2.134364079910124128e+05 8.575507500863954746e+00
1.264039453316987149e+01 4.206160828210053770e-01 1.757827286977591866e+05 9.088383024888553763e+00
1.256680901664898897e+01 4.383739558393950353e-01 1.451443114631503122e+05 9.616755153551920898e+00
1.250150057337640952e+01 4.566008126720004223e-01 1.201631322879925428e+05 1.016109211889882324e+01
1.244356949902210907e+01 4.752852970306367109e-01 9.974098001969890902e+04 1.072187630066979480e+01
1.239221947534354662e+01 4.944203843893663075e-01 8.299100836697377963e+04 1.129960465377572554e+01
1.234660740281615787e+01 5.139832943464901494e-01 6.922600256436172640e+04 1.189478914868860571e+01
1.230610851019379304e+01 5.339723293342388821e-01 5.787109185305021674e+04 1.250795722513878516e+01
1.227010932939520238e+01 5.543702150416601748e-01 4.849537961847010592e+04 1.313965225952077454e+01
1.223802785961030359e+01 5.752741790488055118e-01 4.069384765308020724e+04 1.401684507594681151e+01
1.220974318534374525e+01 5.968086728862767032e-01 3.416546468366618501e+04 1.494271974916671830e+01
1.218519047188310545e+01 6.189588235788103798e-01 2.871405849237108487e+04 1.589656985323452787e+01
1.216410898028753351e+01 6.416906734229153031e-01 2.415663410104764262e+04 1.687924066964866299e+01
1.214623862165144708e+01 6.649874152213667289e-01 2.034998966925187779e+04 1.789160302020449222e+01
1.213134831566562966e+01 6.888263825516732775e-01 1.716879448049189159e+04 1.893455403869797138e+01
1.211903648180310000e+01 7.131778303440692302e-01 1.450493482501471408e+04 2.000901796594629545e+01
1.210908375420926397e+01 7.380220687760022935e-01 1.227480894172399167e+04 2.111594696883036093e+01
1.210118117339973942e+01 7.633336040730273053e-01 1.040444965724595568e+04 2.225632198408457896e+01
1.209505188551836063e+01 7.890925324305105848e-01 8.833078722158625169e+03 2.343115358758196365e+01
1.209045432482570703e+01 8.152788702431595924e-01 7.510724131352477343e+03 2.464148288988481994e+01
1.208710326379440048e+01 8.418668564272631105e-01 6.396546568360082347e+03 2.588838245885455080e+01
1.208476310560374323e+01 8.688417365940288573e-01 5.455658653570496426e+03 2.717295727013831907e+01
1.208330276554080918e+01 8.961733000963754137e-01 4.660707621278629631e+03 2.849634568637473464e+01
1.208242767287324781e+01 9.238466959445765792e-01 3.987336731978014996e+03 2.991473023266454589e+01
1.208203762003180692e+01 9.518716414513157531e-01 3.415628040620358661e+03 3.175707225156243751e+01
1.208209210199196271e+01 9.802489001659764334e-01 2.929710390036691479e+03 3.365508088845799506e+01
1.208249002535223404e+01 1.008948765736727315e+00 2.516069400956134814e+03 3.561043811788557178e+01
1.208314211727934584e+01 1.037928066450660047e+00 2.164112624883403896e+03 3.762487673547182965e+01
1.208378248007134381e+01 1.067190749224488533e+00 1.863451206471784417e+03 3.970018189350207649e+01
1.208448563962026512e+01 1.096673800407781174e+00 1.607227022470747670e+03 4.183819268288400650e+01
1.208488057746793487e+01 1.126384150771166492e+00 1.387615457170412810e+03 4.404080376291045695e+01
1.208503211213714046e+01 1.156268254120716543e+00 1.199780990251534831e+03 4.630996704026597399e+01
1.208475004925666063e+01 1.186306760098033486e+00 1.038684540421493921e+03 4.864769339876450260e+01
1.208391982786983299e+01 1.216472012256829549e+00 9.003059914273358117e+02 5.105605448135163726e+01
1.208240810249663788e+01 1.246743370669698203e+00 7.813342529079712904e+02 5.353718452594996080e+01
1.208014745493884767e+01 1.277088630005244196e+00 6.788845511777298043e+02 5.634438025333185607e+01
1.207709076688795413e+01 1.307440158510530415e+00 5.906517466905233960e+02 5.968895264020389391e+01
1.207317347795271623e+01 1.337765992770873602e+00 5.145719608493164969e+02 6.313458174266719425e+01
1.206835264541874508e+01 1.368031148816530651e+00 4.489172218857081020e+02 6.668432100331014567e+01
1.206250881307927791e+01 1.398231402861674244e+00 3.921172611797735499e+02 7.034131612490983798e+01
1.205556883598784168e+01 1.428317412817896370e+00 3.429395933414459137e+02 7.410880785808610938e+01
1.204753385239966690e+01 1.458275883497978320e+00 3.003056244358689355e+02 7.799013487318559612e+01
1.203829639599744539e+01 1.488081862885699325e+00 2.632601255615215905e+02 8.198873671893937853e+01
1.202779404222082604e+01 1.517703173881183254e+00 2.310524365918689966e+02 8.610815687051763234e+01
1.201597146111533831e+01 1.547122500458805838e+00 2.029884101872869167e+02 9.035204586968094986e+01
1.200277460261453477e+01 1.576271299316631902e+00 1.785502323339740656e+02 9.566780276026754848e+01
1.198819824058942984e+01 1.605070930632735093e+00 1.572652018390789976e+02 1.012632673070571343e+02
1.197222937654218100e+01 1.633479020353059363e+00 1.387193972186034898e+02 1.070277995862496141e+02
1.195478941942600315e+01 1.661496204833736723e+00 1.225135722805037091e+02 1.129665080026791770e+02
1.193584135907889987e+01 1.689095774417376905e+00 1.083319130414803482e+02 1.190846553123358831e+02
1.191536371074582057e+01 1.716265637402374145e+00 9.590084584253908417e+01 1.253876632861074825e+02
1.189328237660736853e+01 1.742999903778056359e+00 8.498108803295912139e+01 1.318811175144361982e+02
1.186961610990150895e+01 1.769260777981219723e+00 7.538673329461083483e+01 1.386762088048110684e+02
1.184438184534974958e+01 1.794947019598990501e+00 6.696494775609404826e+01 1.470925448299136917e+02
1.181751899322852317e+01 1.819958611217731725e+00 5.956998835348768040e+01 1.557631816078862528e+02
1.178899586082126127e+01 1.844289163548317845e+00 5.307628607808944565e+01 1.646958028710222663e+02
1.175871589993242772e+01 1.867944077084749743e+00 4.734578606099670850e+01 1.738983245166456300e+02
1.172673861393385231e+01 1.890901825759495392e+00 4.228978358179770680e+01 1.833789016220085273e+02
1.169296746264181941e+01 1.913166255809022331e+00 3.781570021749994481e+01 1.931459356711465603e+02
1.165747362785404029e+01 1.934715059252376079e+00 3.385277018415489891e+01 2.045079689413748838e+02
1.162026156032795399e+01 1.955329914414537518e+00 3.036253304822083976e+01 2.169718241320275922e+02
1.158127490219396627e+01 1.975038196376101451e+00 2.727471390131572448e+01 2.298122764249335148e+02
1.154042805253883053e+01 1.993806971076730550e+00 2.453968870532916213e+01 2.430407047534371543e+02
1.149769503521554448e+01 2.011699149176876755e+00 2.210737351336111089e+01 2.566688318669214368e+02
1.145304357187336564e+01 2.028661563489525310e+00 1.994042171758883342e+01 2.717303172891311647e+02
1.140664335580965982e+01 2.044570570665630971e+00 1.802142321458458696e+01 2.888713338025648909e+02
1.135843717577046874e+01 2.059396955954282404e+00 1.631605211603273986e+01 3.065302684921886112e+02
1.130828244965486284e+01 2.073163459941803399e+00 1.479547835746235585e+01 3.247227703270705774e+02
1.125616671193999885e+01 2.085871079153791552e+00 1.343607301567157819e+01 3.435633071052658920e+02
1.120223769471496844e+01 2.097466436775065279e+00 1.222328045895545579e+01 3.661546142652711637e+02
1.114651548289841543e+01 2.107876625284831551e+00 1.114225543786264794e+01 3.894285208844678436e+02
1.108886624265075760e+01 2.117094284913445978e+00 1.017588429407561357e+01 4.134056517995846320e+02
1.102926901129224113e+01 2.125185355235634344e+00 9.307272707008458212e+00 4.394715682710207147e+02
1.096807496099453338e+01 2.131909001617064980e+00 8.536779103666898294e+00 4.688124341055524837e+02
1.090498705198032958e+01 2.137182836783990236e+00 7.851154120277051618e+00 4.990398382447959875e+02
1.084000885022762795e+01 2.140955489191552985e+00 7.241741725900995519e+00 5.326254709164794576e+02
1.077341806557474690e+01 2.142814226672360434e+00 6.711483017239021187e+00 5.689002998447888331e+02
