# Radius[km]  Mass[Solar Mass] Lambda Central_pressure[MeV fm-3]
1.929931407144545830e+01 1.528042158306913700e-01 1.684969752787009627e+07 2.373144888178318812e+00
1.819856894447742235e+01 1.609593125502464250e-01 1.273636960168951936e+07 2.587538651897982156e+00
1.728350638405272122e+01 1.695502620390752779e-01 9.703288105974767357e+06 2.815052052696858542e+00
1.651590940201164059e+01 1.785590679658472235e-01 7.455039841190111823e+06 3.056562534446364943e+00
1.586627102986662941e+01 1.879730568173511029e-01 5.766612842631020583e+06 3.313374516209235843e+00
1.531180738425201859e+01 1.977831636367650137e-01 4.488839983947401866e+06 3.585357461468119400e+00
1.483580589700643415e+01 2.079776094472477466e-01 3.515696625494399574e+06 3.874775354749721235e+00
1.442433974188759116e+01 2.185407451347717855e-01 2.768517759429940488e+06 4.181186648961091379e+00
1.406643228372172416e+01 2.294627430751683406e-01 2.192863388327006251e+06 4.506949770043973125e+00
1.375364739796036062e+01 2.407256748230934273e-01 1.745003821669177618e+06 4.852364488962499500e+00
1.347913173704890966e+01 2.523182834144588327e-01 1.395991943398235831e+06 5.218662318741878359e+00
1.323650825398621578e+01 2.642249364620875007e-01 1.121814736924757948e+06 5.608292720452016766e+00
1.302154791390249677e+01 2.764185476830416377e-01 9.056448654221572215e+05 6.021846209640914438e+00
1.283021031143782587e+01 2.888798291560891185e-01 7.346875471302263904e+05 6.461180171651753845e+00
1.265896244081337763e+01 3.015825885883912094e-01 5.985901408327233512e+05 6.928287909478417994e+00
1.250498024729576585e+01 3.144952702212934770e-01 4.898658560167404357e+05 7.425298376105436304e+00
1.236591928701182219e+01 3.275747287787575956e-01 4.027144965101665584e+05 7.954475564770517870e+00
1.223961417735306867e+01 3.407755492378095052e-01 3.326217481294148020e+05 8.519145593146232542e+00
1.212432127317239861e+01 3.540278178656790509e-01 2.759748389269834151e+05 9.121964974924672731e+00
1.201807176728873827e+01 3.672941548300344694e-01 2.300994778282295447e+05 9.792672207276041263e+00
1.191672586500539488e+01 3.812346427798543047e-01 1.912033515041912324e+05 1.055164786082906403e+01
1.182110723020640819e+01 3.960894967270911504e-01 1.582019128266279877e+05 1.133402109018809867e+01
1.173255990760566547e+01 4.118396258123797615e-01 1.305366126387408440e+05 1.214051319194682499e+01
1.165166172768318731e+01 4.284593822843548172e-01 1.075429626942739560e+05 1.297186769871093937e+01
1.157864231703170965e+01 4.459258112830452592e-01 8.853886586426994472e+04 1.382885106458617486e+01
1.151341882759735036e+01 4.642131265718995037e-01 7.290116084745117405e+04 1.471225337179856574e+01
1.145567972767945086e+01 4.832768869927107636e-01 6.007926041598635493e+04 1.562288905909826653e+01
1.140507120029216281e+01 5.031005343084501424e-01 4.956859306216980622e+04 1.656159767261834759e+01
1.136118168801112915e+01 5.236545721274955545e-01 4.096321628955079359e+04 1.752924463988108528e+01
1.132345151038324360e+01 5.449097254386330302e-01 3.390911383455949544e+04 1.852672206766520091e+01
1.129143455930775630e+01 5.668421326824598649e-01 2.812618552545947750e+04 1.955494956446947086e+01
1.126455285583609722e+01 5.894306436595129206e-01 2.337695867013622774e+04 2.061487508833122817e+01
1.124238153505125659e+01 6.126471036205873855e-01 1.947130601397520877e+04 2.170747582078127991e+01
1.122442574189606468e+01 6.364672612031664345e-01 1.625203108725795937e+04 2.283375906774091391e+01
1.121020454595883464e+01 6.608665452004607310e-01 1.359621525994972944e+04 2.399476318819155551e+01
1.119932922977274181e+01 6.858247435907702805e-01 1.139334111602383018e+04 2.519155855147347367e+01
1.119148380659281905e+01 7.114415463432043341e-01 9.562881838020206487e+03 2.672375435248453002e+01
1.118680188339025960e+01 7.379548232724367773e-01 8.024379210367636006e+03 2.838462549749302610e+01
1.118534404932544213e+01 7.653359323420915183e-01 6.737564884154988249e+03 3.009669770321729843e+01
1.118696172005297029e+01 7.935508429304795053e-01 5.661061256770841283e+03 3.186154938748120102e+01
1.119152120945480000e+01 8.225529253397833029e-01 4.762312049647446656e+03 3.368080762731197098e+01
1.119879612360235832e+01 8.523143850921912623e-01 4.011075462162367785e+03 3.555614965899810898e+01
1.120846584782108479e+01 8.827821095719959876e-01 3.383094724365779712e+03 3.748930442439075961e+01
1.122037398082183834e+01 9.139336424169437478e-01 2.857656088486427507e+03 3.948205416487422781e+01
1.123426298902938214e+01 9.457170074660622427e-01 2.418168780386292383e+03 4.153623606447519023e+01
1.124989919433578933e+01 9.781176407142724294e-01 2.049049875136012361e+03 4.365374394362539334e+01
1.126702604590781753e+01 1.011073692796745194e+00 1.739536543862086091e+03 4.583653000513928788e+01
1.128537931091881852e+01 1.044561756062370783e+00 1.479166724056766498e+03 4.808660663401657587e+01
1.130482364319632005e+01 1.078545346525575876e+00 1.259875600874997190e+03 5.040604825272860268e+01
1.132508898197657210e+01 1.112985046751786555e+00 1.074869125977385693e+03 5.279699323369916897e+01
1.134598362224795487e+01 1.147838689570716886e+00 9.185635409099812705e+02 5.526164587074326562e+01
1.136740791357063074e+01 1.183085005848668603e+00 7.863293312157193213e+02 5.780227841128071731e+01
1.138903349467199888e+01 1.218674677195033862e+00 6.740966202576914839e+02 6.042123315119852123e+01
1.141083527372499873e+01 1.254577147325143249e+00 5.788640363655115380e+02 6.312092459429369029e+01
1.143259600250415176e+01 1.290756569372899953e+00 4.978027982097683548e+02 6.590384167828653972e+01
1.145420070366741960e+01 1.327181714206343344e+00 4.287430659893269080e+02 6.936577474264926479e+01
1.147565127526883622e+01 1.363830667734567070e+00 3.697861895288684195e+02 7.324461442369968722e+01
1.149689760504638336e+01 1.400663442751622023e+00 3.194289836162753318e+02 7.724303033232986593e+01
1.151778347841741912e+01 1.437649605902739935e+00 2.763251574625685407e+02 8.136470874468881220e+01
1.153832043803827645e+01 1.474733417635482047e+00 2.394290651313057481e+02 8.561344957683650136e+01
1.155834476931936017e+01 1.511874932180427455e+00 2.077714671811278038e+02 8.999316988801615480e+01
1.157779751846558014e+01 1.549050198512930354e+00 1.805614070788765559e+02 9.450790749192479723e+01
1.159656941376517558e+01 1.586201305231233594e+00 1.571536799610956052e+02 9.916182467931174926e+01
1.161458420583699613e+01 1.623297064544518609e+00 1.369749608758404236e+02 1.039592120553366641e+02
1.163175371506727629e+01 1.660293162527063604e+00 1.195636390017575224e+02 1.089044924952244884e+02
1.164799406553557048e+01 1.697171313706750118e+00 1.044967884070089639e+02 1.140022252218656291e+02
1.166324415501269840e+01 1.733875632924824384e+00 9.146168066019376397e+01 1.192571100091190885e+02
1.167739204589050672e+01 1.770376717385964804e+00 8.015620009347375685e+01 1.246739915146942081e+02
1.169042442949789873e+01 1.806647661917655912e+00 7.033307546200884985e+01 1.302578637466062617e+02
1.170225004679664060e+01 1.842647258146479894e+00 6.178764283386716016e+01 1.360138746673229946e+02
1.171278243514226602e+01 1.878317914224515661e+00 5.434817467552733916e+01 1.425297803417061004e+02
1.172172174330421512e+01 1.913269995270836965e+00 4.791701627357085869e+01 1.504494315622613385e+02
1.172880665045386195e+01 1.947364173737443860e+00 4.235100028380783499e+01 1.586132284796155432e+02
1.173389713790683686e+01 1.980597926491542315e+00 3.751320791142877908e+01 1.670286975768933360e+02
1.173694762699145500e+01 2.012951079658858777e+00 3.329607170790848159e+01 1.757035973623954135e+02
1.173792169793724938e+01 2.044421907892001844e+00 2.961064989480041021e+01 1.846459255224320088e+02
1.173676934730497479e+01 2.075038432369679775e+00 2.637521184942299257e+01 1.938639262946625763e+02
1.173342067024836233e+01 2.104755952335287006e+00 2.353055931482871443e+01 2.033660980687409676e+02
1.172791571981651870e+01 2.133593837186513742e+00 2.102430762052649271e+01 2.131612012212700051e+02
1.172019543741788894e+01 2.161553101329239723e+00 1.880860102503112330e+01 2.236023147045368660e+02
1.170991002219976451e+01 2.187965879289282434e+00 1.688186522906698173e+01 2.364785960683534256e+02
1.169631917630049323e+01 2.212380526932760549e+00 1.521569819393762479e+01 2.497518253024990713e+02
1.167909447402732503e+01 2.234832124765157690e+00 1.376175417986243765e+01 2.634342394502088496e+02
1.165808568904700060e+01 2.255362415996696956e+00 1.248516381295031152e+01 2.775384527962615948e+02
1.163322421693662356e+01 2.273693253021681571e+00 1.137226263482610733e+01 2.938780477425128765e+02
1.160349466531628160e+01 2.288673609650842877e+00 1.043170463710605311e+01 3.114868816294576845e+02
1.156815074947793320e+01 2.300160813975056229e+00 9.633622243818676267e+00 3.310144836320923787e+02
1.152666801568317290e+01 2.307583496559351577e+00 8.970359307301265517e+00 3.523367404249439687e+02
1.147835988509328864e+01 2.311105717610404398e+00 8.410755774168100274e+00 3.770472162720045048e+02
1.142335405129220582e+01 2.311123214414815052e+00 7.930303755656995079e+00 4.037114876779307338e+02
