# Radius[km]  Mass[Solar Mass] Lambda Central_pressure[MeV fm-3]
1.902651417619304297e+01 1.621835301312218591e-01 1.477919826285380498e+07 2.243867917727428996e+00
1.803654485390754303e+01 1.711599235020208887e-01 1.119329448392814770e+07 2.446164043785457487e+00
1.721040604130267226e+01 1.805929328936093647e-01 8.544770448608644307e+06 2.661172810824156798e+00
1.651443936125829026e+01 1.904781872651395702e-01 6.568592158441913314e+06 2.889514650593226985e+00
1.592289692181731553e+01 2.008188343770813955e-01 5.079976367599366233e+06 3.131848526322168702e+00
1.541674525025511322e+01 2.116108971817537432e-01 3.951126377680030651e+06 3.388874385951690549e+00
1.498035936805352897e+01 2.228646607342389119e-01 3.088740022071055137e+06 3.661458880186971410e+00
1.460256894073152623e+01 2.345733485403963536e-01 2.426141923571358901e+06 3.950387337637768059e+00
1.427372897592284318e+01 2.467421099320136202e-01 1.914336699823694071e+06 4.256369883553032807e+00
1.398640748763224195e+01 2.593723333578024093e-01 1.516855165535514941e+06 4.580289663763652541e+00
1.373443060028119866e+01 2.724640446432161633e-01 1.206783287224374246e+06 4.923083979653259057e+00
1.351267844645442295e+01 2.860216841952696321e-01 9.637620257396429079e+05 5.285747375547836135e+00
1.331710509319117897e+01 3.000431390513852437e-01 7.726482635952768615e+05 5.669334837416675654e+00
1.314414668172988954e+01 3.145265424118882103e-01 6.213746259578771424e+05 6.074965099621207010e+00
1.299087492547615774e+01 3.294815323062322832e-01 5.014418192536436836e+05 6.503824054789081544e+00
1.285498235076103768e+01 3.448966918517403224e-01 4.059866648252640734e+05 6.957168260047496666e+00
1.273417776202074059e+01 3.607740787499416069e-01 3.297444116730678361e+05 7.436328530810529358e+00
1.262638056829327127e+01 3.771470757828273013e-01 2.684579737726269523e+05 7.970334697771956911e+00
1.252950108201121004e+01 3.943472275602296073e-01 2.184257553081985970e+05 8.579948453032669065e+00
1.244348054493394073e+01 4.124600034834665641e-01 1.775570983470166393e+05 9.208797675723131348e+00
1.236816897461410214e+01 4.314606204568503522e-01 1.443696218494362256e+05 9.857489312789731173e+00
1.230320015018860680e+01 4.513154852184349530e-01 1.174981331119790557e+05 1.052664946249906563e+01
1.224795146571449855e+01 4.720148634884123728e-01 9.576320671665998816e+04 1.121692397872972791e+01
1.220167129115352012e+01 4.935170929167746467e-01 7.819691515916718345e+04 1.192897909433163406e+01
1.216370167414747705e+01 5.158023890112340970e-01 6.400281738333438261e+04 1.266350206415459390e+01
1.213317322202527926e+01 5.388549860711119299e-01 5.248605032927467983e+04 1.342120182836661613e+01
1.210950448711377447e+01 5.626427460697547289e-01 4.316192926949266985e+04 1.420280969670237425e+01
1.209194617381417558e+01 5.871495671407326311e-01 3.557781655561283696e+04 1.500908005430193981e+01
1.207981809749392355e+01 6.123505227848675680e-01 2.940400983435384114e+04 1.584079108982150252e+01
1.207253172590826473e+01 6.382289283036866046e-01 2.436211369756727436e+04 1.669874554651820375e+01
1.206954775615223951e+01 6.647631159894779040e-01 2.023758229071899405e+04 1.758377149703468945e+01
1.207032196593628548e+01 6.919248803680140281e-01 1.685318811930131051e+04 1.849672314263060002e+01
1.207428876656426020e+01 7.196952081259931910e-01 1.406963414535846277e+04 1.943848163763279047e+01
1.208117217783403596e+01 7.480581534120089859e-01 1.177067647045270314e+04 2.040995593989978474e+01
1.209042085119918042e+01 7.769884465867671341e-01 9.871075217480460196e+03 2.141208368812140961e+01
1.210171992781200245e+01 8.064646035556415349e-01 8.296491830022512659e+03 2.244583210680037766e+01
1.211471153526513156e+01 8.364696297131949398e-01 6.986470217922122174e+03 2.351219893978914044e+01
1.212908350939315127e+01 8.669781411753688660e-01 5.895313872209238980e+03 2.461221341328322154e+01
1.214477822247354588e+01 8.981209910465524082e-01 4.980760236406847071e+03 2.616464985953373201e+01
1.216201141792211082e+01 9.300452712723710214e-01 4.210961673064903152e+03 2.777590254044622853e+01
1.218076470543622847e+01 9.627022370268646378e-01 3.562951038910075113e+03 2.943799593516700597e+01
1.220085874435945428e+01 9.960517113678645229e-01 3.018333248952314989e+03 3.115253424781069569e+01
1.222215276351585089e+01 1.030053219427449429e+00 2.560254483407347834e+03 3.292117230079865919e+01
1.224453377477400018e+01 1.064670610711044629e+00 2.174533424154074055e+03 3.474561713204526114e+01
1.226769035066381974e+01 1.099851996173120128e+00 1.849736222211309723e+03 3.662762964254118003e+01
1.229152403474405197e+01 1.135563787122119139e+00 1.575652463974116927e+03 3.856902629592363496e+01
1.231580050688148553e+01 1.171765712744852195e+00 1.344297144560368451e+03 4.057168087167429604e+01
1.234038755037411761e+01 1.208419363186154838e+00 1.148564872944449917e+03 4.263752627363654568e+01
1.236509615297019060e+01 1.245481859253084966e+00 9.829425198846447529e+02 4.476855639559801148e+01
1.238975081816158408e+01 1.282916273663740947e+00 8.423925323714474871e+02 4.696682804573865155e+01
1.241420364416691591e+01 1.320683507587094629e+00 7.230752499138608300e+02 4.923446293180222000e+01
1.243830416822064500e+01 1.358742981889524915e+00 6.215900673403223209e+02 5.157364970890665745e+01
1.246191048478366703e+01 1.397056697840133754e+00 5.350832504245128121e+02 5.398664609197023623e+01
1.248488013269662034e+01 1.435586127293856151e+00 4.612648298980473101e+02 5.647578103479229128e+01
1.250718101220575562e+01 1.474290960825285435e+00 3.982081511147428614e+02 5.904345697789149483e+01
1.252845849322653038e+01 1.513133563607163001e+00 3.441841598505214392e+02 6.169215216727149453e+01
1.254876317423811116e+01 1.552071531245918123e+00 2.978913301719882725e+02 6.493570493408229538e+01
1.256809417738997503e+01 1.591024233389729314e+00 2.582293349126952648e+02 6.874965663558988638e+01
1.258631065054590970e+01 1.629962213496870760e+00 2.241508971541118171e+02 7.268395198600610740e+01
1.260348735613208682e+01 1.668835116741326230e+00 1.948720323440245750e+02 7.674238825256611563e+01
1.261950725499002068e+01 1.707599221797323930e+00 1.696782562514002848e+02 8.092888251970013869e+01
1.263425509071659647e+01 1.746226035597514770e+00 1.479488544858834587e+02 8.524747546968920631e+01
1.264771954121101594e+01 1.784655179874344411e+00 1.291971737565616252e+02 8.970233528261394440e+01
1.265976680653796471e+01 1.822876108583586952e+00 1.129616584809765101e+02 9.429776165936067400e+01
1.267039003819442300e+01 1.860830987601847397e+00 9.890708400149473789e+01 9.903818997156712101e+01
1.267951939267852701e+01 1.898487707777451128e+00 8.671857334994051314e+01 1.039281955425141604e+02
1.268707267143906492e+01 1.935809257430289865e+00 7.612212439043963741e+01 1.089724980630945623e+02
1.269299406081107584e+01 1.972771635279101154e+00 6.689964350336019550e+01 1.141759661471207039e+02
1.269723264865554313e+01 2.009335551400930342e+00 5.886348664788815199e+01 1.195436220303692636e+02
1.269975765863413564e+01 2.045467627885560358e+00 5.185263179472582351e+01 1.250806464178966593e+02
1.270039973085026652e+01 2.080998001154280796e+00 4.573891567678541037e+01 1.316297202409350007e+02
1.269839274938400209e+01 2.114991554444456412e+00 4.050507430211802529e+01 1.393089475798740011e+02
1.269307067661783073e+01 2.147245317073727566e+00 3.600855289765533485e+01 1.472304816681095758e+02
1.268419335735884879e+01 2.177777538268577118e+00 3.211982600830503287e+01 1.554019681395270993e+02
1.267163681373152251e+01 2.206647485549109167e+00 2.873339069771852294e+01 1.638312938747688463e+02
1.265529968061639110e+01 2.233918699657450713e+00 2.576504650006856423e+01 1.725265946134216790e+02
1.263520895117892096e+01 2.259570998492380856e+00 2.315935181971381240e+01 1.817398888409259712e+02
1.261029387093282672e+01 2.281314786119799098e+00 2.100766814484009615e+01 1.929661847788048874e+02
1.257771194841813944e+01 2.297559775206821087e+00 1.928350527131371095e+01 2.051564954119831725e+02
1.253659839431742995e+01 2.308917578555986783e+00 1.785693357411760473e+01 2.190191769812384734e+02
1.248708042182818012e+01 2.316084735228310265e+00 1.664139164430138607e+01 2.341280659374710353e+02
1.242940871646853651e+01 2.320209211517852754e+00 1.555201341005905391e+01 2.511840806880112211e+02
1.236495200307078512e+01 2.322061782332220492e+00 1.455334399475470164e+01 2.687782729540422793e+02
