# Radius[km]  Mass[Solar Mass] Lambda Central_pressure[MeV fm-3]
1.927510855134089240e+01 1.599669498262286382e-01 1.570785187163824774e+07 2.259440065612445370e+00
1.830243292104469433e+01 1.678450747682760091e-01 1.211978268949344382e+07 2.467421098182332795e+00
1.747752001162716695e+01 1.760557093772789627e-01 9.412993894697472453e+06 2.689651650573303243e+00
1.677009112999082419e+01 1.846185593748156661e-01 7.350653364068830386e+06 2.926788709846727343e+00
1.615807410677344791e+01 1.935477825935299212e-01 5.767905642531383783e+06 3.179496144745629582e+00
1.562458870981779135e+01 2.028644252995930319e-01 4.542220137116810307e+06 3.448445749710507435e+00
1.515660561137933904e+01 2.125837289769539895e-01 3.589320859300801065e+06 3.734318359767860862e+00
1.474427571046819274e+01 2.227274765435350579e-01 2.845954337297293358e+06 4.037805036350077259e+00
1.437917443488122693e+01 2.333130768059764049e-01 2.262413015133758541e+06 4.359608324324430129e+00
1.405488563451089767e+01 2.443614561213774405e-01 1.802863014301226707e+06 4.700443580990960157e+00
1.376610949314096288e+01 2.558885819175415466e-01 1.440244660137439147e+06 5.061040378522129402e+00
1.350836344235917963e+01 2.679137248952165318e-01 1.153079282404999016e+06 5.442143982223859311e+00
1.327813829825264946e+01 2.804554294241367596e-01 9.250816153352187248e+05 5.844744456463453197e+00
1.307225712835423437e+01 2.935220914754855803e-01 7.437895782844875939e+05 6.269941327804164466e+00
1.288813739910939304e+01 3.071374781700415002e-01 5.992468560903226025e+05 6.718175371301123633e+00
1.272340684816311907e+01 3.213091755138071104e-01 4.837306864279631991e+05 7.190289459764542812e+00
1.257614311219161429e+01 3.360493346078735066e-01 3.912645187441645539e+05 7.687789946476930147e+00
1.244462066301339220e+01 3.513916708274317235e-01 3.170477382180200075e+05 8.235069035460574227e+00
1.232656835023536424e+01 3.675376084428538803e-01 2.568153678772988787e+05 8.859980429623007581e+00
1.222161215986375815e+01 3.845449906926415862e-01 2.079786810808014998e+05 9.504245226809521441e+00
1.212927976262388086e+01 4.023857152670857751e-01 1.685701751659596048e+05 1.016846279872640757e+01
1.204900190155773565e+01 4.210313073870250444e-01 1.367968678104990395e+05 1.085325107952307633e+01
1.197990709304224488e+01 4.404608533346843213e-01 1.112342893296228140e+05 1.155924714066783743e+01
1.192105444288329075e+01 4.606486640033941593e-01 9.063470583778839500e+04 1.228710778362753153e+01
1.187158171262014328e+01 4.815762407309664983e-01 7.403027680579030130e+04 1.303751015090228726e+01
1.183065191573766839e+01 5.032219975640550569e-01 6.062525679163219320e+04 1.381115235598405988e+01
1.179734831676897500e+01 5.255596032079651314e-01 4.977983194415870094e+04 1.460875413282469815e+01
1.177100841765393291e+01 5.485769626340923910e-01 4.098833782947112923e+04 1.543105750541812249e+01
1.175062194307282049e+01 5.722453688427004970e-01 3.383778161848945456e+04 1.627882747811920083e+01
1.173569288891957996e+01 5.965484654867980741e-01 2.800868629384385713e+04 1.715285274734177179e+01
1.172569853573716614e+01 6.214653999522339323e-01 2.325118040596722494e+04 1.805394643529778520e+01
1.171983632902307804e+01 6.469756317143434687e-01 1.934443423388374867e+04 1.898294684646025843e+01
1.171777284268204866e+01 6.730601789368008125e-01 1.613948083288085218e+04 1.994071824745377697e+01
1.171882516010536968e+01 6.997093461936304548e-01 1.349538780459522604e+04 2.092815167109804975e+01
1.172269663930860872e+01 7.268961668825557609e-01 1.131195248383911166e+04 2.194616574535253051e+01
1.172898192661667416e+01 7.546010511729049908e-01 9.502410256105775261e+03 2.299570754793341010e+01
1.173732409837720780e+01 7.828021280781001234e-01 8.000992069029557570e+03 2.407775348739784960e+01
1.174739630597535545e+01 8.115659577357241528e-01 6.747076225833455283e+03 2.550242864369977269e+01
1.175938888507117142e+01 8.410309553013525230e-01 5.694989020726722629e+03 2.705154390038546097e+01
1.177324838282327413e+01 8.711647011091283588e-01 4.813169312538491795e+03 2.864863500160435095e+01
1.178862012302566598e+01 9.019447846783038569e-01 4.072880456828768729e+03 3.029518775136539332e+01
1.180552524646863688e+01 9.333170572172710955e-01 3.451547771982512131e+03 3.199273396878312070e+01
1.182368503118192926e+01 9.652623019643854496e-01 2.929546138624503783e+03 3.374285291315793245e+01
1.184289284352563421e+01 9.977406807969583236e-01 2.490175354448834241e+03 3.554717275319083569e+01
1.186295624962087381e+01 1.030716929303725271e+00 2.120385024680789684e+03 3.740737208169949213e+01
1.188367943949688055e+01 1.064152195891923336e+00 1.808371882552080706e+03 3.932518147724491797e+01
1.190482905854714701e+01 1.098033452694166190e+00 1.544514100153400477e+03 4.130238511412126456e+01
1.192633865842339169e+01 1.132299298371683305e+00 1.321541573812761271e+03 4.334082242220699044e+01
1.194791568341389087e+01 1.166925780041418337e+00 1.132469300205621266e+03 4.544238979822106472e+01
1.196954071006397413e+01 1.201894923987116837e+00 9.719422291067173774e+02 4.760904236997679106e+01
1.199095324544121155e+01 1.237152027521997377e+00 8.354672063870320926e+02 4.984279581527398051e+01
1.201198348301292107e+01 1.272675483125650375e+00 7.192095490702225788e+02 5.214572823712221350e+01
1.203255982273816471e+01 1.308432646944226452e+00 6.200034573639748032e+02 5.451998209703922527e+01
1.205256541951797544e+01 1.344379327917802902e+00 5.352589408828099522e+02 5.696776620822328852e+01
1.207186468470038498e+01 1.380487552625484282e+00 4.627166041921172450e+02 6.004083820606307853e+01
1.209038225530209587e+01 1.416720733766041240e+00 4.005796833424536771e+02 6.347421151591348121e+01
1.210817354940550672e+01 1.453013096333055421e+00 3.473315397638962168e+02 6.701391583207663416e+01
1.212510509791750302e+01 1.489367176155640182e+00 3.015657476091789135e+02 7.066324420831728048e+01
1.214111998169960849e+01 1.525714553900501258e+00 2.622373881892700638e+02 7.442559168373307443e+01
1.215608758382374077e+01 1.562042475605124547e+00 2.283478340454888382e+02 7.830445844122391463e+01
1.217003459576749158e+01 1.598283373119420148e+00 1.991238951006920388e+02 8.230345306377797954e+01
1.218278224419508682e+01 1.634429131418788206e+00 1.738777334212785775e+02 8.642629589160452497e+01
1.219433421779531379e+01 1.670428493358216748e+00 1.520470735798633086e+02 9.067682248323691852e+01
1.220453609454981780e+01 1.706263863804145853e+00 1.331012817536619934e+02 9.505898718382498203e+01
1.221338437454902248e+01 1.741887317504022592e+00 1.166720302451396947e+02 9.957686680393696577e+01
1.222082696436139138e+01 1.777266591801718087e+00 1.023942808243708527e+02 1.042346644122934549e+02
1.222678206413884894e+01 1.812379505659605039e+00 8.996869114811639179e+01 1.090367132459614083e+02
1.223114160480919210e+01 1.847173747113749487e+00 7.913713961353543880e+01 1.145891297814902146e+02
1.223394620865900428e+01 1.881504668920517043e+00 6.972073465751500976e+01 1.212325587347692419e+02
1.223512575101526600e+01 1.915320558728761169e+00 6.151886912998716639e+01 1.280817335893003133e+02
1.223465377330146353e+01 1.948593020237145756e+00 5.436703708470665219e+01 1.351430262617817277e+02
1.223250016564803211e+01 1.981299945497434267e+00 4.811619706227253346e+01 1.424230060061232734e+02
1.222861240368842495e+01 2.013437697868439180e+00 4.264210910259191678e+01 1.499284455249472501e+02
1.222301583489651122e+01 2.044962558914494632e+00 3.784247805705192746e+01 1.576663272703611369e+02
1.221563593930553537e+01 2.075890807895305112e+00 3.361881979520937591e+01 1.656438499398653050e+02
1.220647598470629269e+01 2.106173793103828018e+00 2.990417953779899563e+01 1.738684351734366089e+02
1.219550242256297068e+01 2.135792554746649863e+00 2.663002571577563415e+01 1.823477344580206250e+02
1.218267781580550491e+01 2.164756866293754634e+00 2.373852532271624227e+01 1.910896362458542512e+02
1.216784367371056241e+01 2.192552820457271956e+00 2.121181568719475052e+01 2.022336778145908625e+02
1.215016182347029350e+01 2.218482080934229383e+00 1.903328579212316995e+01 2.139212920403452642e+02
1.212921007527167561e+01 2.242483214784270373e+00 1.714317993751012636e+01 2.259708697550262571e+02
1.210473230778030995e+01 2.264615490670480735e+00 1.548897463400582097e+01 2.383936209083103961e+02
1.207663166369752972e+01 2.284951652028874847e+00 1.403310732006801231e+01 2.513080300284254918e+02
1.204457962687220984e+01 2.301701972320278955e+00 1.282366415403692805e+01 2.669070014278086660e+02
1.200605072533485362e+01 2.312901120112051956e+00 1.187168278675298083e+01 2.842953800941776876e+02
1.195965372844361774e+01 2.318015642457752712e+00 1.114018412142108083e+01 3.041604190628293622e+02
