# Radius[km]  Mass[Solar Mass] Lambda Central_pressure[MeV fm-3]
1.911464783930053457e+01 1.604146112798753021e-01 1.524172950065917894e+07 2.263837680321153289e+00
1.816884608466564188e+01 1.684980142545855764e-01 1.177537238350969739e+07 2.457193261406950047e+00
1.737061338623072615e+01 1.769297357274072779e-01 9.168592747699750587e+06 2.662489310205202742e+00
1.669028711823828814e+01 1.857081720838995587e-01 7.183647597783376463e+06 2.880359674159356231e+00
1.610578458792656065e+01 1.948262311465400187e-01 5.660994090589226224e+06 3.111475273613821813e+00
1.560012420561751689e+01 2.042780525935181668e-01 4.485042127258338034e+06 3.356544950839683406e+00
1.515968892825835468e+01 2.140600934849547776e-01 3.570711404255762231e+06 3.616316357078847687e+00
1.477384891340971862e+01 2.241681235188552612e-01 2.855596369743636809e+06 3.891576880709808783e+00
1.443411667671637666e+01 2.345928623900675469e-01 2.294234480734990444e+06 4.183154619481880943e+00
1.413340943721883036e+01 2.453392868011105010e-01 1.850452150729773333e+06 4.492180449415341670e+00
1.386619464146108704e+01 2.563929618131441379e-01 1.498396646540180314e+06 4.819556985217662515e+00
1.362766769007707524e+01 2.677566650237585555e-01 1.217734078602035763e+06 5.166087013397570260e+00
1.341389254703776146e+01 2.794235284860355217e-01 9.930611333742307033e+05 5.533058516083908529e+00
1.322179416464497237e+01 2.913860181159202423e-01 8.126773918715668842e+05 5.921778272299274448e+00
1.304822177484895462e+01 3.036450351344825438e-01 6.671001330103722867e+05 6.335359798920294772e+00
1.288918233749180509e+01 3.164293345514153644e-01 5.475441525080216816e+05 6.831059448488645103e+00
1.274295132140548326e+01 3.299424465951651397e-01 4.485891579245867324e+05 7.341394322757788693e+00
1.261009077433874737e+01 3.441607123435942439e-01 3.673967495678894920e+05 7.866796517659666144e+00
1.249029003515909331e+01 3.590612521455499584e-01 3.007275693595158518e+05 8.407710886490605162e+00
1.238297516614291460e+01 3.746292584552410321e-01 2.465303666721648187e+05 8.964595416564590025e+00
1.228743297507848453e+01 3.908387420912400878e-01 2.023365130534673808e+05 9.537921616986995588e+00
1.220276943789971824e+01 4.076736476825854605e-01 1.663676554949196579e+05 1.012817491787707169e+01
1.212817440618053233e+01 4.251160667337340326e-01 1.370590516385085357e+05 1.073585508137726663e+01
1.206272122018428306e+01 4.431435162239134029e-01 1.131701739869409648e+05 1.136147662479730513e+01
1.200567983264469696e+01 4.617413652572627814e-01 9.366844202209686046e+04 1.200556925625136628e+01
1.195606528164955940e+01 4.808865443780689919e-01 7.770631852422175871e+04 1.266867832315714359e+01
1.191327791798361169e+01 5.005734963861575570e-01 6.462681804082796589e+04 1.335136527397659734e+01
1.187661050617238345e+01 5.207788063352747354e-01 5.387465826157501579e+04 1.405420813358929344e+01
1.184536361885930233e+01 5.414871839981516555e-01 4.501700129415740230e+04 1.477780199270085504e+01
1.181889318784620713e+01 5.626871859573522316e-01 3.770696292705386441e+04 1.552275951170088675e+01
1.179676573260448258e+01 5.843615678373754729e-01 3.165115689579919126e+04 1.628971143939699573e+01
1.177841788968909142e+01 6.064982459017866923e-01 2.662825311226260965e+04 1.707930714706413511e+01
1.176339960755225889e+01 6.290808141226778005e-01 2.244791618049893077e+04 1.789221517826136676e+01
1.175137306380126034e+01 6.522367549881076254e-01 1.894705700461062588e+04 1.900673908475341989e+01
1.174243507613157256e+01 6.761127383024509996e-01 1.599598941617729906e+04 2.016872640868600541e+01
1.173650771149241656e+01 7.006831909884535525e-01 1.351549340120913803e+04 2.136502068764677276e+01
1.173352296010159712e+01 7.259208942588399882e-01 1.142964575179821077e+04 2.259663481320438549e+01
1.173317808270464546e+01 7.518004744318411703e-01 9.676642176462110001e+03 2.386461158192284415e+01
1.173533422546636196e+01 7.782925715938557865e-01 8.202874326643541281e+03 2.517002457828788664e+01
1.173966927900425183e+01 8.053602338533409899e-01 6.963905162129256496e+03 2.651397908370136847e+01
1.174601624257481092e+01 8.329917826583139728e-01 5.919961096066636856e+03 2.789761301231293444e+01
1.175407148371364130e+01 8.611442254732644130e-01 5.040226981380175857e+03 2.932209787448175575e+01
1.176371165015668474e+01 8.898069645748114542e-01 4.298017466552727456e+03 3.078863976868374053e+01
1.177457252510411045e+01 9.189447387584593896e-01 3.670360099645418359e+03 3.229848040270420029e+01
1.178656699129747842e+01 9.485304939464828111e-01 3.139504206391693515e+03 3.385289814498067784e+01
1.179945263393718236e+01 9.785457981516409998e-01 2.689326577371920848e+03 3.545320910698593053e+01
1.181302796758746432e+01 1.008958057043869871e+00 2.307611176496249300e+03 3.710076825756764407e+01
1.182714061377641634e+01 1.039744911255001236e+00 1.982531336525878714e+03 3.879697057018832140e+01
1.184157729681522753e+01 1.070878692130450505e+00 1.705914845596631949e+03 4.054325220403674734e+01
1.185619993818841422e+01 1.102331083294687764e+00 1.469879171303816520e+03 4.234109172001094379e+01
1.187095570634924613e+01 1.134083960785394529e+00 1.268382428051313354e+03 4.434762274453964892e+01
1.188551370283731501e+01 1.166138369912302242e+00 1.095651693680276594e+03 4.684835553278704623e+01
1.190010697094297853e+01 1.198479959305465359e+00 9.478034945857167486e+02 4.942292090555313422e+01
1.191461211329433034e+01 1.231072625496693718e+00 8.208952952875413303e+02 5.207349872410190983e+01
1.192889319569646212e+01 1.263886238982006693e+00 7.119713136365492119e+02 5.480233320874917524e+01
1.194285749409254471e+01 1.296890938734187371e+00 6.182846663106514598e+02 5.761173483902354775e+01
1.195645069604439747e+01 1.330047057018452161e+00 5.376774851410905285e+02 6.050408230992872660e+01
1.196949835912409732e+01 1.363327288895117784e+00 4.681618537735060386e+02 6.348182454596300772e+01
1.198197495586852845e+01 1.396697781984981068e+00 4.081903130290559147e+02 6.654748277460160466e+01
1.199373977621846521e+01 1.430125839000034871e+00 3.563475285144978670e+02 6.970365266099710766e+01
1.200476277461538110e+01 1.463588112001848351e+00 3.114491202984913230e+02 7.295300650570587209e+01
1.201487476867856508e+01 1.497051585836795651e+00 2.725329266005334148e+02 7.629829550730070764e+01
1.202405577904270828e+01 1.530480304398293523e+00 2.387733434429471799e+02 7.974235209178583261e+01
1.203221733299260343e+01 1.563852490248756499e+00 2.094208333783769831e+02 8.328809231078651010e+01
1.203929434765962547e+01 1.597126051103192390e+00 1.838817913101196950e+02 8.720119931037002914e+01
1.204513657075394129e+01 1.630145730580496721e+00 1.617115877179830363e+02 9.202953568558943687e+01
1.204969309290788892e+01 1.662837206120844735e+00 1.424521061301565226e+02 9.700042569756020328e+01
1.205288512404037249e+01 1.695171941953669492e+00 1.256857492495608142e+02 1.021180781539899698e+02
1.205461908911226132e+01 1.727134245223681308e+00 1.110449707297756987e+02 1.073868261250234184e+02
1.205484907022345276e+01 1.758698214742264287e+00 9.825597001373817818e+01 1.128111306120138693e+02
1.205358080780986541e+01 1.789850938803512204e+00 8.705921868224261573e+01 1.183955843246124857e+02
1.205071678282124736e+01 1.820566637716436009e+00 7.722538373996636096e+01 1.241449155693744757e+02
1.204625359472320234e+01 1.850833015217005384e+00 6.858967537209113630e+01 1.300639922531732395e+02
1.204012400741648925e+01 1.880625185333718141e+00 6.098441170875870654e+01 1.361578260048135576e+02
1.203232566938052805e+01 1.909936012130332150e+00 5.427704754417002420e+01 1.424315764183320425e+02
1.202278269587031367e+01 1.938592802940526161e+00 4.838829734334629507e+01 1.503908374128549212e+02
1.201133817904892531e+01 1.966368508335927912e+00 4.322361403270370772e+01 1.587285105984441032e+02
1.199781327404580722e+01 1.993233687671717602e+00 3.868398239296402608e+01 1.673123484134800663e+02
1.198223599468106215e+01 2.019217413106023873e+00 3.468288832280233436e+01 1.761496187159659996e+02
1.196447682385954892e+01 2.044308537788447566e+00 3.114198163379968065e+01 1.852478039429049943e+02
1.194453849876113338e+01 2.068507824278402740e+00 2.800360750973666413e+01 1.946146074456117105e+02
1.192240582086495770e+01 2.091833459237105064e+00 2.521227412731740003e+01 2.042579600120702992e+02
1.189812060699675733e+01 2.114230398536669941e+00 2.273325989191078733e+01 2.155764633438492410e+02
1.187157708450388505e+01 2.135393045191813055e+00 2.054566509886693026e+01 2.280583390510929860e+02
1.184257397645535015e+01 2.155291671845593005e+00 1.860811803273051623e+01 2.409087343968354276e+02
1.181110091570660714e+01 2.173968570092557506e+00 1.688559523842556942e+01 2.541385296948327266e+02
1.177706584180071303e+01 2.191437160684850838e+00 1.534908148957721075e+01 2.677589264933562276e+02
1.174046445194187704e+01 2.207729306500120892e+00 1.397240428937949375e+01 2.826585169846235885e+02
1.170142736000180861e+01 2.222632431886383486e+00 1.274924901633026053e+01 2.998906338604896291e+02
1.165978349724287177e+01 2.236076622378905476e+00 1.166071527070084279e+01 3.176315182990688868e+02
1.161540778467632506e+01 2.248077091982576992e+00 1.068771321441714761e+01 3.358961913470924969e+02
1.156829245426075126e+01 2.258734051629955886e+00 9.812694982711564151e+00 3.553927497846818824e+02
1.151864372935313874e+01 2.267879273338985868e+00 9.031517486807219441e+00 3.780833904355433788e+02
1.146629741789466728e+01 2.275464119772212523e+00 8.332631056674417280e+00 4.014439581779803916e+02
1.141115336614503661e+01 2.281532701325860835e+00 7.704693332875028666e+00 4.254942321938561349e+02
1.135334449615814556e+01 2.286041528406119294e+00 7.141265091155998057e+00 4.537086159883775167e+02
1.129296090933278229e+01 2.288906733600056587e+00 6.637839684177789579e+00 4.831289350960571483e+02
1.122977377227718421e+01 2.290133782533291029e+00 6.185609041584621437e+00 5.143637896211916996e+02
