# Radius[km]  Mass[Solar Mass] Lambda Central_pressure[MeV fm-3]
1.950538593977099922e+01 1.522106212009358139e-01 1.748161768480734155e+07 2.368743211246670199e+00
1.838065559910892333e+01 1.600837425316483653e-01 1.322740784298306331e+07 2.587692175193234245e+00
1.743734695389895251e+01 1.684500438459611282e-01 1.006969583940309472e+07 2.820011018761840571e+00
1.663829086186691697e+01 1.773314342247300224e-01 7.711322205507946201e+06 3.066075001110407872e+00
1.595742271864333084e+01 1.867316189637569512e-01 5.933213544786464423e+06 3.326822129339446210e+00
1.537394337283541823e+01 1.966630884853638184e-01 4.584530865859705023e+06 3.602484466972110333e+00
1.487163377383867946e+01 2.071308569130616006e-01 3.557771469891909510e+06 3.893237994666014501e+00
1.443726428325595279e+01 2.181507244989858707e-01 2.771674462229927070e+06 4.200709375342082552e+00
1.406067215268012305e+01 2.297265900319252208e-01 2.168324680052641779e+06 4.524342084219910021e+00
1.373335826623400990e+01 2.418658070859294462e-01 1.702359292519784300e+06 4.865731704006326375e+00
1.344811028959640886e+01 2.545817500470416439e-01 1.341294860674191965e+06 5.224738104444401010e+00
1.319938577848542671e+01 2.678755360022699317e-01 1.060408451092677657e+06 5.602960616552541850e+00
1.298207355690139231e+01 2.817670613503429067e-01 8.413152529140582774e+05 6.000045909158753688e+00
1.279238395089163305e+01 2.962544217987861384e-01 6.695839349280442111e+05 6.418283020975470876e+00
1.262693213589837171e+01 3.113459249290075337e-01 5.346841170158785535e+05 6.856978189000427548e+00
1.248275879949130385e+01 3.270535472651620590e-01 4.282990484180993517e+05 7.318119210384825379e+00
1.235702620918018901e+01 3.433841011471847615e-01 3.440479642902937485e+05 7.802163516244553065e+00
1.224798938541863258e+01 3.603451050428324587e-01 2.771975700959658134e+05 8.309484445262128816e+00
1.215375508723526643e+01 3.779403881500781326e-01 2.239791068548958574e+05 8.842864720432537240e+00
1.207254302981563221e+01 3.962003535073942428e-01 1.814268724058489606e+05 9.445716315957998432e+00
1.200303708462624996e+01 4.152317064533798674e-01 1.471971411657878489e+05 1.011125544940931142e+01
1.194429856852609539e+01 4.350255971758182905e-01 1.196376822233303392e+05 1.079746875348294388e+01
1.189560419408487491e+01 4.555718758558656711e-01 9.746610804501303937e+04 1.150499844635878333e+01
1.185588991195400155e+01 4.768340712373194124e-01 7.959661332847256563e+04 1.223450669595004747e+01
1.182434057149062667e+01 4.988044343360914512e-01 6.517373925566812250e+04 1.298667623961762985e+01
1.180014855809093000e+01 5.214625309866741665e-01 5.350503850600230362e+04 1.376221102313529521e+01
1.178239333576081016e+01 5.447829345034674864e-01 4.404245445999388176e+04 1.456183685950339424e+01
1.177062038016654455e+01 5.687479627049479847e-01 3.636165975154578337e+04 1.538630210822785571e+01
1.176374740537621655e+01 5.933503729665313697e-01 3.009688805756381407e+04 1.623637837570026221e+01
1.176156043294104769e+01 6.185619865457954170e-01 2.497409314827741764e+04 1.711286123733429676e+01
1.176329871315659403e+01 6.443656305626286329e-01 2.077916129655491750e+04 1.801657098213445707e+01
1.176843577828262788e+01 6.707556838200796623e-01 1.733071741909874618e+04 1.894835338039403538e+01
1.177664143231429428e+01 6.976953834861870929e-01 1.449251855936796346e+04 1.990908047524058944e+01
1.178744920659043771e+01 7.251875046981373085e-01 1.214757546201563673e+04 2.089965139876985489e+01
1.180033936611748402e+01 7.531827114630280651e-01 1.020637928091901449e+04 2.192099321353186880e+01
1.181508367184233776e+01 7.817032113058890452e-01 8.592401247746051013e+03 2.297406178015685541e+01
1.183135887647480189e+01 8.107005811487236757e-01 7.249774644265703500e+03 2.405984265193289318e+01
1.184879650789745931e+01 8.401615881781500095e-01 6.129694991266890611e+03 2.517935199717247841e+01
1.186717202706157259e+01 8.700729907170685618e-01 5.192422886507881231e+03 2.633363755023135511e+01
1.188639812448631083e+01 9.004722188049323339e-01 4.405903367813993100e+03 2.793266558498286756e+01
1.190639556100768814e+01 9.314113747780942143e-01 3.743168005919123516e+03 2.958723595465404088e+01
1.192713875346102803e+01 9.628435942245262558e-01 3.185077968139363293e+03 3.129320355765072748e+01
1.194841180248168655e+01 9.947450188809107141e-01 2.714598956740402627e+03 3.305216498704739081e+01
1.197003500711408286e+01 1.027096642858845277e+00 2.316767042120664428e+03 3.486576643215714455e+01
1.199189385981062372e+01 1.059840518307602508e+00 1.980476816723030197e+03 3.673570521917896770e+01
1.201383766966249489e+01 1.092964950622146825e+00 1.695734451556470958e+03 3.866373139970345818e+01
1.203570097475621914e+01 1.126428300812412298e+00 1.454184038974753321e+03 4.065164938856352705e+01
1.205731602150680892e+01 1.160202011020342150e+00 1.249022869483081422e+03 4.270131965256294393e+01
1.207854157618725388e+01 1.194253620844978991e+00 1.074323993541091113e+03 4.481466045166328627e+01
1.209928846020338078e+01 1.228559208217919974e+00 9.254850328651416476e+02 4.699364963425861674e+01
1.211937513672977040e+01 1.263075793136030356e+00 7.984113929074211455e+02 4.924032648821835778e+01
1.213871915823010639e+01 1.297791086070062105e+00 6.896922423536094584e+02 5.155679364943038934e+01
1.215717633826603539e+01 1.332658289124609485e+00 5.966360970285589929e+02 5.394521906963104385e+01
1.217466352042209721e+01 1.367645190456333593e+00 5.167321148944262177e+02 5.640783804536294355e+01
1.219109844155065581e+01 1.402715470275292198e+00 4.481782503167864320e+02 5.955894679188110530e+01
1.220642492919789746e+01 1.437796647173074982e+00 3.892905451975109372e+02 6.298513925272816039e+01
1.222059081623766730e+01 1.472855328343420034e+00 3.386344100049431063e+02 6.651776225080473637e+01
1.223353357097835925e+01 1.507856995315286497e+00 2.949880233409677430e+02 7.016012192240773970e+01
1.224517911007902704e+01 1.542776698806750613e+00 2.573309477574223365e+02 7.391562710497136379e+01
1.225551194263110233e+01 1.577566994691990132e+00 2.247992356469417246e+02 7.778779252735398586e+01
1.226437379729548738e+01 1.612222068177463719e+00 1.966141692954293489e+02 8.178024209922773480e+01
1.227178490080016715e+01 1.646691122530894003e+00 1.722007219985709412e+02 8.589671230264863766e+01
1.227767912761689040e+01 1.680938436160598126e+00 1.509991176279851572e+02 9.014105568898206400e+01
1.228194350017158420e+01 1.714953621557602004e+00 1.325519945846568817e+02 9.451724448445587257e+01
1.228459251264718866e+01 1.748694150557404070e+00 1.165025106854462251e+02 9.902937430771569893e+01
1.228552457081477201e+01 1.782145281547429239e+00 1.024892013610838575e+02 1.037732717030555705e+02
1.228466253937719976e+01 1.815095921952438962e+00 9.031698311638893983e+01 1.099043720398784814e+02
1.228185158059045712e+01 1.847410001933969204e+00 7.974184719088582085e+01 1.162259276153119885e+02
1.227703285366391839e+01 1.879069608880067355e+00 7.052369066141214660e+01 1.227438546916778250e+02
1.227013136633296142e+01 1.910053676100490261e+00 6.247039967054924148e+01 1.294642533128526622e+02
1.226113808792623772e+01 1.940361668292018393e+00 5.541981373131748967e+01 1.363934130132201119e+02
1.225003175941863276e+01 1.969999928529664768e+00 4.922815722995446919e+01 1.435378187039653142e+02
1.223673329077805327e+01 1.998906015968460181e+00 4.379130451999731122e+01 1.509041567422190155e+02
1.222127817330058086e+01 2.027101908253892137e+00 3.899982155715137111e+01 1.584993211887333473e+02
1.220363157669758003e+01 2.054521145926361925e+00 3.477575379835555935e+01 1.672635211013728735e+02
1.218358562928050937e+01 2.080806029123536405e+00 3.107955782003589462e+01 1.773038138456685431e+02
1.216099938845026784e+01 2.105812939423250540e+00 2.784761591351112386e+01 1.876559961767077880e+02
1.213563823512638962e+01 2.129554571675842389e+00 2.500430765723548632e+01 1.983297565684021606e+02
1.210753852372611661e+01 2.152081121898957505e+00 2.249362068547359073e+01 2.093350844554225603e+02
1.207661145825423432e+01 2.173405734969342973e+00 2.026899391918117033e+01 2.206822795821813088e+02
1.204290925236160881e+01 2.193453681852254089e+00 1.829816996813763552e+01 2.339162827062226597e+02
1.200634261910606249e+01 2.211815940042213935e+00 1.656849939713036690e+01 2.484675794477890634e+02
1.196654376198619296e+01 2.228425262053082889e+00 1.504818164609769582e+01 2.634708946755585544e+02
1.192340205137898579e+01 2.243353577099486795e+00 1.370108101450040650e+01 2.789402697987257511e+02
1.187688545790081918e+01 2.256592841021898721e+00 1.250450626816522615e+01 2.966131557829565963e+02
1.182707947014604066e+01 2.267930160225972269e+00 1.144889178776336358e+01 3.159762665848680285e+02
1.177375490915957634e+01 2.277370334746716907e+00 1.051234956560727341e+01 3.359408690743106831e+02
1.171688663132789721e+01 2.285018178290488589e+00 9.676256457202443428e+00 3.578843258472148818e+02
1.165658072606438012e+01 2.290781908132686784e+00 8.932077004599573655e+00 3.825085467776844439e+02
1.159293101030485396e+01 2.294798548537243743e+00 8.264086045780684842e+00 4.078976894375779239e+02
1.152583080462997422e+01 2.297062889270669483e+00 7.664325446176665224e+00 4.363044101615583372e+02
1.145562746199657234e+01 2.297629339703943785e+00 7.125372225262183612e+00 4.673140083646603102e+02
