# Radius[km]  Mass[Solar Mass] Lambda Central_pressure[MeV fm-3]
1.902968621002166572e+01 1.616989430274052564e-01 1.485164834293948114e+07 2.250750356511351136e+00
1.811039434491672395e+01 1.699022162197113273e-01 1.150409115903824195e+07 2.435270706149478936e+00
1.733148142920973100e+01 1.785061297089798327e-01 8.966704478707069531e+06 2.630382894814844441e+00
1.666707859713971729e+01 1.875056415933194776e-01 7.028543620720168576e+06 2.836455948409543737e+00
1.609625875692903563e+01 1.969024225016069995e-01 5.540662388876440935e+06 3.053820390442281152e+00
1.560244224139236024e+01 2.067021518374908828e-01 4.386454433210825548e+06 3.282942627482173137e+00
1.517334243005618610e+01 2.169039125690856995e-01 3.489107504878713749e+06 3.524346944806334037e+00
1.479836063305389082e+01 2.275139804638396657e-01 2.785904113554994110e+06 3.778936504725003864e+00
1.446971138278550306e+01 2.385328454548926169e-01 2.233210203986455686e+06 4.046865240384284412e+00
1.418035235382123993e+01 2.499699336894184720e-01 1.796882741308715660e+06 4.328697317520565413e+00
1.392497415850263032e+01 2.618236896530416469e-01 1.450190583224206232e+06 4.625024352612593148e+00
1.369902113114637388e+01 2.741022047903154402e-01 1.174355545771967154e+06 4.936969361468693585e+00
1.349868882986224428e+01 2.868096808816936183e-01 9.542884515971426154e+05 5.264763006004713475e+00
1.332073545118897862e+01 2.999520710407115320e-01 7.769831406499282457e+05 5.609045890811120927e+00
1.316258535120876694e+01 3.135277865133028197e-01 6.347869147237790748e+05 5.970534197769039153e+00
1.302176996905495798e+01 3.275491729579027012e-01 5.200216453425878426e+05 6.350482883268435685e+00
1.289638427447449587e+01 3.420173498917026267e-01 4.270094223048522254e+05 6.749318273224825582e+00
1.278473031033782092e+01 3.569361449257802965e-01 3.515601971476856270e+05 7.167761854098920082e+00
1.268494550784251373e+01 3.724072155023164243e-01 2.898114103929676930e+05 7.656350056104487045e+00
1.259533585383097964e+01 3.887792182837458421e-01 2.384191642333011259e+05 8.191803212728146377e+00
1.251630411524646291e+01 4.060677540172172306e-01 1.959190395202157088e+05 8.742669017035320067e+00
1.244799074833202290e+01 4.242511565610912472e-01 1.609651234644142096e+05 9.309391111398229057e+00
1.238996395109983695e+01 4.433146319664481028e-01 1.323273382368416060e+05 9.892425908127028933e+00
1.234176919220106150e+01 4.632393769326482724e-01 1.088764910649198282e+05 1.049224295704363286e+01
1.230286676888721153e+01 4.840035788273148731e-01 8.972316137520399934e+04 1.110932532363584535e+01
1.227257931495694088e+01 5.055925568817868365e-01 7.407295768931839848e+04 1.174416997809647789e+01
1.225026076387860385e+01 5.279927477162829064e-01 6.127817875487449783e+04 1.239728819556055761e+01
1.223533620728007065e+01 5.511850913158643506e-01 5.080327960687551968e+04 1.306920596786326350e+01
1.222707311725032220e+01 5.751560145415816061e-01 4.221604416028325795e+04 1.376046442714986107e+01
1.222493252640774131e+01 5.998845965376112810e-01 3.516570692782189872e+04 1.447162028167904957e+01
1.222835428990033790e+01 6.253670423355610630e-01 2.936547465447320064e+04 1.520324626417058056e+01
1.223675081013155719e+01 6.515776284089481729e-01 2.457252849814725050e+04 1.595593159305827058e+01
1.224973573589774389e+01 6.785046734638814359e-01 2.061612714959261211e+04 1.673028244701979261e+01
1.226670367221120905e+01 7.061359842103623885e-01 1.733675733440104523e+04 1.752692245316558939e+01
1.228732438966778240e+01 7.344533440767494481e-01 1.461420078778737115e+04 1.834649318927989725e+01
1.231116155327211459e+01 7.634452970377151315e-01 1.234679321379902103e+04 1.918965470051839972e+01
1.233789838536340788e+01 7.930895393136025984e-01 1.045440957143125524e+04 2.005708603097873777e+01
1.236716628749361213e+01 8.233722380380603667e-01 8.871626088134828024e+03 2.094948577057188288e+01
1.239852457284142595e+01 8.542827570561677408e-01 7.543207442997922044e+03 2.186757261763477089e+01
1.243188777084231766e+01 8.857980061142889383e-01 6.427147869998035276e+03 2.281208595773746239e+01
1.246687666751304313e+01 9.178984834431186401e-01 5.487236382203611356e+03 2.378378645915072909e+01
1.250327381895941059e+01 9.505728804211477367e-01 4.693529848179890905e+03 2.478345668545386005e+01
1.254082250063649440e+01 9.837999075023973194e-01 4.021545460049575922e+03 2.581190172577595376e+01
1.257933923731166814e+01 1.017559283418560057e+00 3.451986936789615811e+03 2.686994984317821178e+01
1.261857228137444054e+01 1.051834328819298170e+00 2.967827093699824673e+03 2.795845314169950058e+01
1.265839050713010927e+01 1.086598839542658013e+00 2.555793338014571418e+03 2.907828825260234495e+01
1.269860037111328843e+01 1.121838816141631945e+00 2.204309491450420410e+03 3.023035704037211957e+01
1.273899866207483811e+01 1.157529875044097434e+00 1.904034836110053220e+03 3.141558732903774853e+01
1.277945453330665160e+01 1.193649418988274036e+00 1.646865968700251869e+03 3.263493364939927233e+01
1.281984616524887421e+01 1.230175829748098471e+00 1.426525188363181996e+03 3.388937800776365350e+01
1.286001167020161695e+01 1.267087693761832723e+00 1.237100765498488727e+03 3.517993067680819763e+01
1.289982918666163592e+01 1.304359020801604485e+00 1.074199535237632745e+03 3.650763100920844551e+01
1.293897490120832394e+01 1.341811292306324566e+00 9.343605075576447234e+02 3.832411010384156924e+01
1.297685618420824660e+01 1.379127546073579014e+00 8.148143125013650661e+02 4.032074894947521670e+01
1.301323208984210922e+01 1.416265796950396894e+00 7.122256242031802458e+02 4.237485965926407516e+01
1.304795972041742225e+01 1.453215532645700137e+00 6.238499640960793613e+02 4.448809652095118139e+01
1.308097626487247922e+01 1.489967056843211957e+00 5.475330869114018242e+02 4.666216143980459918e+01
1.311218949315570192e+01 1.526501175237570118e+00 4.814122593324040054e+02 4.889880530925506719e+01
1.314152989823752726e+01 1.562818991091600163e+00 4.239607045903831590e+02 5.119982942098614132e+01
1.316894384414894859e+01 1.598897407770208501e+00 3.739263129391514440e+02 5.356708691561293989e+01
1.319435054814543484e+01 1.634722813316621171e+00 3.302388221629484519e+02 5.600248427511775162e+01
1.321776048656143132e+01 1.670289165916081453e+00 2.920373654479838024e+02 5.850798285824425449e+01
1.323910759925147218e+01 1.705575783532614409e+00 2.585543819399299537e+02 6.108560048008700960e+01
1.325830553011204138e+01 1.740570725879151626e+00 2.291999653855729093e+02 6.373741303714835738e+01
1.327538502031890388e+01 1.775263756169367602e+00 2.033545346686238702e+02 6.646555617917145753e+01
1.329031691184404451e+01 1.809629754134558066e+00 1.806135694158490708e+02 6.927222702909591590e+01
1.330302028753110299e+01 1.843662386652239693e+00 1.605610568402235856e+02 7.215968595252105899e+01
1.331276239261836203e+01 1.876505666594195931e+00 1.432169127160065045e+02 7.599235726503823685e+01
1.331778228075613058e+01 1.907051160663572942e+00 1.284918694025195407e+02 7.999924577581734297e+01
1.331766519182120945e+01 1.935376203365956727e+00 1.158431204820081604e+02 8.412146979290510274e+01
1.331220614664115587e+01 1.961578826920882257e+00 1.048742730377616255e+02 8.836234916884536972e+01
1.330136021639865085e+01 1.985782261516835456e+00 9.526790544877198386e+01 9.272529931583470386e+01
1.328515436333209898e+01 2.007986231441576397e+00 8.682409676228046180e+01 9.799251989430403853e+01
1.326363572195037754e+01 2.028075355308278205e+00 7.941330206111688028e+01 1.036711317421898997e+02
1.323659137997245239e+01 2.046088433878238799e+00 7.285932245033502852e+01 1.095131984930120836e+02
1.320410807733949099e+01 2.062161010449756748e+00 6.701718567290589590e+01 1.155234250827673179e+02
1.316645808881071922e+01 2.076415201136910138e+00 6.178387476738603823e+01 1.224346019615252033e+02
1.312368568330653851e+01 2.088716380461039801e+00 5.710711734330328682e+01 1.300468570871872487e+02
1.307583423810842760e+01 2.099150923215105546e+00 5.290827688827899067e+01 1.378782256962185215e+02
1.302299493253303098e+01 2.107854152635932454e+00 4.910961601475527516e+01 1.460952628704471579e+02
1.296545812357461003e+01 2.114824126909993662e+00 4.567141904763094828e+01 1.558148760212366710e+02
1.290331336802275075e+01 2.120072803072420520e+00 4.255713270071294119e+01 1.658142614943291733e+02
1.283658674953623802e+01 2.123704438503128955e+00 3.972318798463095391e+01 1.762807847384939350e+02
1.276558066229247679e+01 2.125748616910629440e+00 3.713593205756554028e+01 1.884977878325004497e+02
1.269050659322867425e+01 2.126263973198490032e+00 3.477604228997881819e+01 2.010664488859514449e+02
