# Radius[km]  Mass[Solar Mass] Lambda Central_pressure[MeV fm-3]
1.891847270572658246e+01 1.610546003480581856e-01 1.467654222065686993e+07 2.269025238495242736e+00
1.789704241577170052e+01 1.704966353673615376e-01 1.099459597224300914e+07 2.470239152324039011e+00
1.705374545412905718e+01 1.804704191647451550e-01 8.307476444743366912e+06 2.683309305673276413e+00
1.635108050330621055e+01 1.909679499596313723e-01 6.326832813034417108e+06 2.908796752947945929e+00
1.576029915849486329e+01 2.019866912010760129e-01 4.850263297814496793e+06 3.147298174946649763e+00
1.526013988967539348e+01 2.135244387278399658e-01 3.742478509249877185e+06 3.399447244291116110e+00
1.483407303177735415e+01 2.255787663187897585e-01 2.904407501158424187e+06 3.674297106865692442e+00
1.446662045527109264e+01 2.382735064327390073e-01 2.261537032431568019e+06 4.004403930623054997e+00
1.414909312549187170e+01 2.516562841774093173e-01 1.766176329601068981e+06 4.344950273277198072e+00
1.387520546988400483e+01 2.657036157680863764e-01 1.384674702119238442e+06 4.696266281153349986e+00
1.363932217377750789e+01 2.803947261486997578e-01 1.089799005719961133e+06 5.058692541344856686e+00
1.343647949441590406e+01 2.957084526473792163e-01 8.614545533816445386e+05 5.432580411899012418e+00
1.326201189535695235e+01 3.116294790033194984e-01 6.839693107478546444e+05 5.818292362444912769e+00
1.311224807074507304e+01 3.281399813209709415e-01 5.453328982242224738e+05 6.216202325593538802e+00
1.298369621149526587e+01 3.452266118329574418e-01 4.367735567283455748e+05 6.626696059450764231e+00
1.287353784559642023e+01 3.628738739821100179e-01 3.512746550175272278e+05 7.050171521594716495e+00
1.277924337078523642e+01 3.810698126988212309e-01 2.836713718365935492e+05 7.487039254880040851e+00
1.269883318717081977e+01 3.998029980326700539e-01 2.299847365173532453e+05 7.937722785443090068e+00
1.263026757281446777e+01 4.190575418715602463e-01 1.871601260935798637e+05 8.402659033293916835e+00
1.257205370844861214e+01 4.388257717175096384e-01 1.528598157465123513e+05 8.882298735893094488e+00
1.252286588014432844e+01 4.590986994191873505e-01 1.252754499529189488e+05 9.377106885123991376e+00
1.248145978299463899e+01 4.798646003901489987e-01 1.030049135105727182e+05 9.887563178084187498e+00
1.244676364228660859e+01 5.011118510591936470e-01 8.495259117368918669e+04 1.041416248213298168e+01
1.241787853462013125e+01 5.228291474039030717e-01 7.027419193651313253e+04 1.095741531464591745e+01
1.239406081033012974e+01 5.450065443712448499e-01 5.829213706875802745e+04 1.151784833794132723e+01
1.237451472315627932e+01 5.676376272156772318e-01 4.848245568820508197e+04 1.209600486985881851e+01
1.235871723975160208e+01 5.907725341236385042e-01 4.040371806526640285e+04 1.290314286420204049e+01
1.234642861175744422e+01 6.145177812035674814e-01 3.371558211523439968e+04 1.378062293951400541e+01
1.233742610763833092e+01 6.388510238372953065e-01 2.818089787652640007e+04 1.468585303139182585e+01
1.233137114656523714e+01 6.637456419575250566e-01 2.359344862086569992e+04 1.561971072491243362e+01
1.232793428599372199e+01 6.891854151828477049e-01 1.978726795222898727e+04 1.658310135848997646e+01
1.232676767278703522e+01 7.151416143184486929e-01 1.662505432750826367e+04 1.757695890156590934e+01
1.232756235674427536e+01 7.415904852929363633e-01 1.399352488202470158e+04 1.860224686005571826e+01
1.233007405817678759e+01 7.685151620669475880e-01 1.180098077903629746e+04 1.965995921043014860e+01
1.233384556936274379e+01 7.958989284279989196e-01 9.969131957885818338e+03 2.075112136333640223e+01
1.233887637119140024e+01 8.236999714629491542e-01 8.437746301652805414e+03 2.187679115769356031e+01
1.234446516544015537e+01 8.519348594103411942e-01 7.151861318755667526e+03 2.303805988622593404e+01
1.235079530120736102e+01 8.805475198869788800e-01 6.072823196425491005e+03 2.423605335342855938e+01
1.235752521130530468e+01 9.095295744074607391e-01 5.165429084016858724e+03 2.547193296699049370e+01
1.236438498769491012e+01 9.388590208851463892e-01 4.400459397518053265e+03 2.674689686373408648e+01
1.237126360577393136e+01 9.685115447928259735e-01 3.754097537229895352e+03 2.806218107116155380e+01
1.237794085869987981e+01 9.984779803157763922e-01 3.207400326845476229e+03 2.984181480589260360e+01
1.238445974094996949e+01 1.028733281776023745e+00 2.744456776359579180e+03 3.171098093991257016e+01
1.239056159507442523e+01 1.059262228855112786e+00 2.351527651334292841e+03 3.363925883343880230e+01
1.239627565880516791e+01 1.090021352737743809e+00 2.017924319758750244e+03 3.562851787627477762e+01
1.240142971913389047e+01 1.120990070283208073e+00 1.734155475486497153e+03 3.768068657705695301e+01
1.240592569393755085e+01 1.152137938582934229e+00 1.492674782157530444e+03 3.979775443286823133e+01
1.240955644639476319e+01 1.183442464428401175e+00 1.286061479681300852e+03 4.198177385797743000e+01
1.241233924950453549e+01 1.214875180735545346e+00 1.109717576841384016e+03 4.423486217357439187e+01
1.241406949656318481e+01 1.246402294743801153e+00 9.588057344561904074e+02 4.655920366042988690e+01
1.241469039703370925e+01 1.278010572715484461e+00 8.294006130091187288e+02 4.895705167647010825e+01
1.241410875716004192e+01 1.309663777255512196e+00 7.182979409642971405e+02 5.143073084131888351e+01
1.241220252311870276e+01 1.341319715833366066e+00 6.228270991666557848e+02 5.443624924124568309e+01
1.240898425633307944e+01 1.372879381235889262e+00 5.408703060790629706e+02 5.781554277436623579e+01
1.240429915714048725e+01 1.404327719448321465e+00 4.703351162916841304e+02 6.130170534550072148e+01
1.239820591329693400e+01 1.435628507451714997e+00 4.095704761726765355e+02 6.489811665255760431e+01
1.239054914397658003e+01 1.466756005925659245e+00 3.571214688224377483e+02 6.860826327527161084e+01
1.238132423334995913e+01 1.497683761337343933e+00 3.118302711899776796e+02 7.243574205530607912e+01
1.237045049521231377e+01 1.528400695929479358e+00 2.725205460162199529e+02 7.638426358324980470e+01
1.235786684261763391e+01 1.558876124686019216e+00 2.384559016036681953e+02 8.045765579588926641e+01
1.234353198289771925e+01 1.589078371736399209e+00 2.088727419631933060e+02 8.465986768724312128e+01
1.232742073933608395e+01 1.618965072499044311e+00 1.831551163800175175e+02 8.975857194022252372e+01
1.230951882655092788e+01 1.648398686529672474e+00 1.608602612606867694e+02 9.534927413395902818e+01
1.228979809757849218e+01 1.677355233921757449e+00 1.414781688982174330e+02 1.011167804316927032e+02
1.226818726326112952e+01 1.705818782442494186e+00 1.245960714532183999e+02 1.070666822046157733e+02
1.224466862779644671e+01 1.733784947166033596e+00 1.098610485445509539e+02 1.132047476491813427e+02
1.221922013343476010e+01 1.761247956992198382e+00 9.697514391213927354e+01 1.195369273791435916e+02
1.219181955165885434e+01 1.788177223536665306e+00 8.569306996699633316e+01 1.260693601944444424e+02
1.216242075876130357e+01 1.814528535982886881e+00 7.579810063029663070e+01 1.334270937890045730e+02
1.213110241188613081e+01 1.840209025657536523e+00 6.714443208413641173e+01 1.419541932350896616e+02
1.209785906248232479e+01 1.865143619504551431e+00 5.956626241328999072e+01 1.507509593750919521e+02
1.206267794886694844e+01 1.889341056701689281e+00 5.291968353568497463e+01 1.598259203288331491e+02
1.202548795444334040e+01 1.912816607910968081e+00 4.706536788553761141e+01 1.691878739150978674e+02
1.198628978848024396e+01 1.935549459829547514e+00 4.190752665578067138e+01 1.788458961807741900e+02
1.194505310415628507e+01 1.957500794024126023e+00 3.735550014224653381e+01 1.893519634685689255e+02
1.190193566158289684e+01 1.978617514863041826e+00 3.334157897527384051e+01 2.017777676896678258e+02
1.185694659979717969e+01 1.998803289573523934e+00 2.980876710840861676e+01 2.145965338510785045e+02
1.180999427221504838e+01 2.018083419406104362e+00 2.668524661686862487e+01 2.278206892439273190e+02
1.176113087839134685e+01 2.036468731982289171e+00 2.391964429514201385e+01 2.414630541683036142e+02
1.171026570252199583e+01 2.053964672403354896e+00 2.146393636912486258e+01 2.555368543620383548e+02
1.165756771430210037e+01 2.070479231658532093e+00 1.928765795038995989e+01 2.728451716565874676e+02
1.160313559816947837e+01 2.085880494714233979e+00 1.736550634701814388e+01 2.907243993527026191e+02
1.154682095538787934e+01 2.100247402414451958e+00 1.565903849798407244e+01 3.091690516991445747e+02
1.148857247311798524e+01 2.113571475042088199e+00 1.413914250549828111e+01 3.281970100630855995e+02
1.142841849081164973e+01 2.125818996434761576e+00 1.278557291191831169e+01 3.497824737394999488e+02
1.136662449609190162e+01 2.136912889867395915e+00 1.158450214470864736e+01 3.736658752473244931e+02
1.130303815392636757e+01 2.146807928784995934e+00 1.051456609180709201e+01 3.983045814123578907e+02
1.123759879935510142e+01 2.155545368902142656e+00 9.559243360922687671e+00 4.237224784940599989e+02
1.117037835718599048e+01 2.163165990882641054e+00 8.705146535311678591e+00 4.533103146567268027e+02
1.110153489832285700e+01 2.169608824484961840e+00 7.941491499172503410e+00 4.849290145351923229e+02
1.103106385633177844e+01 2.174916542458141588e+00 7.257035993184077327e+00 5.175476453181928491e+02
1.095888671259098324e+01 2.179109172845813625e+00 6.641398885595807045e+00 5.527708245506578351e+02
1.088538758343930368e+01 2.182149751476373023e+00 6.090677144410532762e+00 5.930150369911016242e+02
1.081050155626037856e+01 2.183977048619835770e+00 5.597378676330807323e+00 6.345319593121715798e+02
1.073413741143018107e+01 2.184628076461834656e+00 5.154050444210137805e+00 6.795275953866163263e+02
