# Radius[km]  Mass[Solar Mass] Lambda Central_pressure[MeV fm-3]
1.898208704219315024e+01 1.668168416980916335e-01 1.405536113626408391e+07 2.181744244710987601e+00
1.814522583163461178e+01 1.748071297137858970e-01 1.104053393212788738e+07 2.365907376264552830e+00
1.743552194437100411e+01 1.829677742203418556e-01 8.753009205986136571e+06 2.563057906373789940e+00
1.682818790127389619e+01 1.912530130574497667e-01 6.987163342509556562e+06 2.773978916206691459e+00
1.630405323652277971e+01 1.996161749297931387e-01 5.630543168454031460e+06 3.000382451550325236e+00
1.584807491631464238e+01 2.079954041442260149e-01 4.568793324445622973e+06 3.243474425008998185e+00
1.544964357715293701e+01 2.162982952542300275e-01 3.741535953193518333e+06 3.505660074994473963e+00
1.510048036119303383e+01 2.243868779059947915e-01 3.093628684434941504e+06 3.789869029360921626e+00
1.479718850742960790e+01 2.319807998077864919e-01 2.594045231953688897e+06 4.101794984069272232e+00
1.458479124288368567e+01 2.369865925385466754e-01 2.290251926975064445e+06 4.506395428713693363e+00
1.438506540382231158e+01 2.407791116806748677e-01 2.050638518878200790e+06 4.976623780816923137e+00
1.415729484445421171e+01 2.452689217971038838e-01 1.805671853778422577e+06 5.460585527690789753e+00
1.391272003523937606e+01 2.505560564469355156e-01 1.569860724459423451e+06 5.958681764103561207e+00
1.366011191031972594e+01 2.566709436772813269e-01 1.352683953363914508e+06 6.471325299116742258e+00
1.340685690571484479e+01 2.636049877363807470e-01 1.158240849329179153e+06 6.998940998210320785e+00
1.315860567077803012e+01 2.713416331610226662e-01 9.881939031173338881e+05 7.541966135400154592e+00
1.291925808714341706e+01 2.798603365580575320e-01 8.416442368835913949e+05 8.100850755639108058e+00
1.269177053437356228e+01 2.891331318141197593e-01 7.165698008666413371e+05 8.676058047802570172e+00
1.247773281009065727e+01 2.991291944287960969e-01 6.104273731458924012e+05 9.268064728567093624e+00
1.227809416264932452e+01 3.098159741837359094e-01 5.202716312819543527e+05 9.877361437500759678e+00
1.209311848489940644e+01 3.211601031877609480e-01 4.438807411313974299e+05 1.050445314369224725e+01
1.192252263699675296e+01 3.331390047078980343e-01 3.789197864555337583e+05 1.114985956425602254e+01
1.176538635342903127e+01 3.457678936779586265e-01 3.234981091623698012e+05 1.191545980852843378e+01
1.161960820287968588e+01 3.593116193502113309e-01 2.754179420338196214e+05 1.279825490252629017e+01
1.148594536728362492e+01 3.737916554647852663e-01 2.339685019617218641e+05 1.370683273266332947e+01
1.136479625199700649e+01 3.891864065793386729e-01 1.983792845082284475e+05 1.464194630435085109e+01
1.125615912127731733e+01 4.054568736946917995e-01 1.680425768259854813e+05 1.560437061512485712e+01
1.115953797564791827e+01 4.225733417367340539e-01 1.421971528697514732e+05 1.659490329694367006e+01
1.107436721609820651e+01 4.405174696649327704e-01 1.202546807800042588e+05 1.761436527724433532e+01
1.099981915678366917e+01 4.592560210738458326e-01 1.016382971377771028e+05 1.866360145930570980e+01
1.093525909249058969e+01 4.787527386177096722e-01 8.588938100636850868e+04 1.974348142248200233e+01
1.087982612368138824e+01 4.989943107733337824e-01 7.257315786401422520e+04 2.085490014288730620e+01
1.083262027849820264e+01 5.199412247818313570e-01 6.131236591792151012e+04 2.199877873512834725e+01
1.079301126113228548e+01 5.415749287279654212e-01 5.181216431246859429e+04 2.317606521569993561e+01
1.076029827742282663e+01 5.638740847300603987e-01 4.378470854541794688e+04 2.438773528867614004e+01
1.073367573578248901e+01 5.868096060773101419e-01 3.701395275097213744e+04 2.563479315434819483e+01
1.071260692870549747e+01 6.103658713255101231e-01 3.129245222052447571e+04 2.691827234147925907e+01
1.069650578794604101e+01 6.345078282402824010e-01 2.647129842391456259e+04 2.823923656386590153e+01
1.068483375862317786e+01 6.592215170801427604e-01 2.240295774202938264e+04 2.959878060191608640e+01
1.067704576194017996e+01 6.844836972299624955e-01 1.896749674186383709e+04 3.099803120997441042e+01
1.067272944575808324e+01 7.102698528696345104e-01 1.606747632704702482e+04 3.243814805014647362e+01
1.067146795885961552e+01 7.365652086808934795e-01 1.361911992434243439e+04 3.393349254324422049e+01
1.067297186525943786e+01 7.634038676377243871e-01 1.154666778422618700e+04 3.587951616896945950e+01
1.067699339802474867e+01 7.908172094770901106e-01 9.792659868044822360e+03 3.788237496970172202e+01
1.068337933975107390e+01 8.187767619832733157e-01 8.309057737575009014e+03 3.994372886214264184e+01
1.069190140058190686e+01 8.472488232580849266e-01 7.055928758625349474e+03 4.206528624218750423e+01
1.070226744136400576e+01 8.762042764839659270e-01 5.995203923203275735e+03 4.424880540079883673e+01
1.071424701395627821e+01 9.056169466904361309e-01 5.098595479148835693e+03 4.649609598123175402e+01
1.072763717574947684e+01 9.354551290281454268e-01 4.339785636744908516e+03 4.880902047881870232e+01
1.074221381642190210e+01 9.656944129099849228e-01 3.697916196645166565e+03 5.118949578455646332e+01
1.075776809195808958e+01 9.963007283381187795e-01 3.154257813307344804e+03 5.363949477377529007e+01
1.077412899740165386e+01 1.027253018958555364e+00 2.693262966731515917e+03 5.616104794120578703e+01
1.079109242737883179e+01 1.058518665002801340e+00 2.301936529203690498e+03 5.875624508379978295e+01
1.080847803775409766e+01 1.090075475530081661e+00 1.969493457888979492e+03 6.142723703269894031e+01
1.082618679702582831e+01 1.121883743106736331e+00 1.687242625188923512e+03 6.417623743578705842e+01
1.084404892048601887e+01 1.153923308189136465e+00 1.446874801030337721e+03 6.700552459230333113e+01
1.086188918242484469e+01 1.186170071471451815e+00 1.242233498800462485e+03 6.991744334103670155e+01
1.087960366362028886e+01 1.218593745288677477e+00 1.067471342439423324e+03 7.291440700366665340e+01
1.089710342663169840e+01 1.251158956039788439e+00 9.183967153141386461e+02 7.660773022095352758e+01
1.091430079281567522e+01 1.283817932618287694e+00 7.911870369305516988e+02 8.062385063981174937e+01
1.093113325497374255e+01 1.316548388925170565e+00 6.825384456611495807e+02 8.475726506468188859e+01
1.094753737330075616e+01 1.349317152926812646e+00 5.894533676710885857e+02 8.901139916073614700e+01
1.096343195058541475e+01 1.382093715854631810e+00 5.098108295220881701e+02 9.338977864243548765e+01
1.097868454070591859e+01 1.414853700008945392e+00 4.414500778244627099e+02 9.789603219554896896e+01
1.099326234948846981e+01 1.447557864393042459e+00 3.827600658291135574e+02 1.025338944845131124e+02
1.100711338715337284e+01 1.480190214168020768e+00 3.323170028672215608e+02 1.073072092476237174e+02
1.102014261569416753e+01 1.512717783292561791e+00 2.888605468515650614e+02 1.122199324826247278e+02
1.103228034647011313e+01 1.545110423136403011e+00 2.513860269718012148e+02 1.172761357253355072e+02
1.104346169196957028e+01 1.577345694292074940e+00 2.190503659828694083e+02 1.224800094240323887e+02
1.105366475944332194e+01 1.609387824895137431e+00 1.911088818632188122e+02 1.278358664123821313e+02
1.106275467017602310e+01 1.641232529382709693e+00 1.668833339715016564e+02 1.333481454838051263e+02
1.107073715742397724e+01 1.672767178633695506e+00 1.459382958409179878e+02 1.402096628633176181e+02
1.107743378806791590e+01 1.703840265795510289e+00 1.278510865705211472e+02 1.475264243056992939e+02
1.108282013106840047e+01 1.734485057767552352e+00 1.121902067469623034e+02 1.550568776126427224e+02
1.108687320240884233e+01 1.764630744691282338e+00 9.860682574651444554e+01 1.628072638258081497e+02
1.108951406703728537e+01 1.794279929552600406e+00 8.679859927344558912e+01 1.707840062614645831e+02
1.109070563538286081e+01 1.823409952355670383e+00 7.651611614175430987e+01 1.789937158339653251e+02
1.109043126927022449e+01 1.852022180315592070e+00 6.754389622131128590e+01 1.874431965347000073e+02
1.108868392914199674e+01 1.880097231866460383e+00 5.970191756853684950e+01 1.961394510710636894e+02
1.108542730797664078e+01 1.907629545675645133e+00 5.283349897991666921e+01 2.050896866701165209e+02
1.108061918168141169e+01 1.934586201722389154e+00 4.681291902304386809e+01 2.145349678038152206e+02
1.107413820559912665e+01 1.960725140931067090e+00 4.155806054338611233e+01 2.261715702005797368e+02
1.106574050683926380e+01 1.985826856117203665e+00 3.698919841945280496e+01 2.381480288688529754e+02
1.105530463655484397e+01 2.009882942781488602e+00 3.299718912692345185e+01 2.504742695826153067e+02
1.104277665246929807e+01 2.032948168609311601e+00 2.949369647322512833e+01 2.631605080060068076e+02
1.102808482463300344e+01 2.054995673745217744e+00 2.641127542055450306e+01 2.762172581598023839e+02
1.101122973049459652e+01 2.076033994780644321e+00 2.369176958228563734e+01 2.896553411351546288e+02
1.099216005330104018e+01 2.095919287206817305e+00 2.129938422854902669e+01 3.055462338786629743e+02
1.097050981372678713e+01 2.114133382463105448e+00 1.922164520069463123e+01 3.224473166703456855e+02
1.094595814355680830e+01 2.130681843269136344e+00 1.740535203095855366e+01 3.398420090901829553e+02
1.091827703992973930e+01 2.145602441742735511e+00 1.580518714703655014e+01 3.579684193988741754e+02
1.088751045722072952e+01 2.158421638415712884e+00 1.442062192430418222e+01 3.791251688802900617e+02
1.085286958927826184e+01 2.168626941821516940e+00 1.323545282246467103e+01 4.008998181361280899e+02
1.081420898658379137e+01 2.175623713436450224e+00 1.224796571731883432e+01 4.259604466610935560e+02
1.077035695311881014e+01 2.178639087850383405e+00 1.144692186512996557e+01 4.541019380481505436e+02
