# Radius[km]  Mass[Solar Mass] Lambda Central_pressure[MeV fm-3]
1.970544902833797352e+01 1.482560481129390761e-01 1.869604304412310198e+07 2.426273966723726971e+00
1.850021910705244821e+01 1.558595756126418541e-01 1.405179387249789014e+07 2.661610838713571514e+00
1.749438549279178545e+01 1.639252606524232714e-01 1.064477233913146704e+07 2.912659239614107332e+00
1.664686873407260492e+01 1.724531906230014067e-01 8.116986493838099763e+06 3.180112505580527493e+00
1.592698967383578079e+01 1.814514037048371164e-01 6.222470663025456481e+06 3.464704361736887339e+00
1.531118838366112556e+01 1.909180809723199923e-01 4.796745285867200233e+06 3.767212383407185339e+00
1.478135465446746011e+01 2.008566016673158650e-01 3.715481808356081601e+06 4.088756183916414599e+00
1.432302216609309120e+01 2.112710514374146198e-01 2.891095448184940498e+06 4.430303023323148182e+00
1.392455880717604266e+01 2.221630865975913194e-01 2.259635028526425827e+06 4.792467212314525327e+00
1.357671051087652714e+01 2.335376062503028427e-01 1.773303028241199441e+06 5.176235335494255629e+00
1.327230945453724864e+01 2.453933776371964304e-01 1.397362125962534919e+06 5.582656528365330217e+00
1.300463714335360521e+01 2.577395093633152445e-01 1.105048044215800008e+06 6.013576855878826066e+00
1.276896118561440652e+01 2.705769491341692423e-01 8.771562503210994182e+05 6.469551176347627219e+00
1.256095093376126748e+01 2.839041356470459188e-01 6.989750060934339417e+05 6.951781505572501629e+00
1.237693231344175082e+01 2.977330005282775582e-01 5.585105205543747870e+05 7.461602233032327725e+00
1.221392357075470514e+01 3.120570428224659909e-01 4.479307320341395098e+05 8.000569913281269763e+00
1.206934676632165093e+01 3.268797113220406336e-01 3.602493174856601981e+05 8.570691557787082360e+00
1.194051159358660996e+01 3.422964611340286178e-01 2.903870253959354595e+05 9.238158091232548941e+00
1.182559160670166953e+01 3.584516824008258662e-01 2.341649315843130462e+05 9.937291780832559596e+00
1.172400678719572120e+01 3.753144686844954170e-01 1.891034154560136376e+05 1.065873455035633377e+01
1.163465694444188436e+01 3.928659733866800008e-01 1.530037880051333341e+05 1.140319827373365591e+01
1.155660003076918940e+01 4.110724535176428218e-01 1.240967715438885643e+05 1.217141754051023028e+01
1.148873888421236700e+01 4.299250704618713392e-01 1.008952862527960242e+05 1.296415038069406478e+01
1.143004463593705644e+01 4.493935935608558974e-01 8.224650509958430484e+04 1.378217901273136370e+01
1.137961439736359814e+01 4.694602620132566906e-01 6.723477017890286515e+04 1.462631061535002175e+01
1.133653655556999240e+01 4.900950572924550608e-01 5.512294093708848959e+04 1.549737812403233761e+01
1.129986581499152720e+01 5.113013502287429013e-01 4.531229722656257218e+04 1.639624105290289435e+01
1.126890407673575822e+01 5.330345221711946246e-01 3.735286681821642560e+04 1.732378634284257402e+01
1.124297092063166481e+01 5.552987554688952887e-01 3.087347955766858286e+04 1.828092923666545744e+01
1.122146587445324606e+01 5.780599913580819482e-01 2.558593584033834486e+04 1.926861418222239308e+01
1.120378476671352885e+01 6.013106232958462805e-01 2.125750076745863771e+04 2.028781576432209377e+01
1.118942727261406489e+01 6.250925159673378362e-01 1.769631958096289964e+04 2.157360763522832059e+01
1.117831271203427868e+01 6.495548458791943203e-01 1.474663598344603997e+04 2.298015657461877836e+01
1.117028141197123503e+01 6.746716996775138364e-01 1.230547074893652461e+04 2.443158793517180527e+01
1.116505171636855742e+01 7.004147709398869104e-01 1.028432087657671764e+04 2.592933389722111670e+01
1.116238789597373149e+01 7.267483306878518290e-01 8.608236957264052762e+03 2.747487234140927015e+01
1.116198223882020457e+01 7.536486806261007976e-01 7.218431210555129837e+03 2.906972830696645360e+01
1.116353190098030268e+01 7.810839290433829740e-01 6.064345530648247404e+03 3.071547549652242992e+01
1.116679361260412051e+01 8.090199242885586228e-01 5.103783345104858199e+03 3.241373782893630562e+01
1.117155326310865249e+01 8.374352308316157512e-01 4.303701509106251251e+03 3.416619104167673271e+01
1.117739221839036823e+01 8.662943985369877531e-01 3.635498326805118268e+03 3.597456434433311045e+01
1.118419284214050435e+01 8.955743551814572267e-01 3.076511751445812479e+03 3.784064212488995338e+01
1.119169527419679611e+01 9.252453390398422961e-01 2.608278243551420928e+03 3.976626571044759828e+01
1.119967163446000136e+01 9.552768051729567667e-01 2.214863785193290369e+03 4.175333518412698908e+01
1.120796257161889287e+01 9.856615528417925765e-01 1.883903813520727681e+03 4.422223521330602836e+01
1.121652519021018790e+01 1.016399189330242425e+00 1.604852625878772869e+03 4.689355482749235904e+01
1.122533984847515143e+01 1.047467232143517668e+00 1.369387585018979053e+03 4.965011519557359065e+01
1.123404823030581490e+01 1.078825727546915747e+00 1.169994951045991229e+03 5.249463631634209548e+01
1.124272493034125375e+01 1.110434490864111945e+00 1.001420121807842634e+03 5.542992498267745560e+01
1.125127193813260540e+01 1.142263430970843929e+00 8.584893391831553799e+02 5.845887755111156991e+01
1.125935505797962222e+01 1.174278090213017434e+00 7.370424232036757530e+02 6.158448279976937556e+01
1.126690371472449392e+01 1.206445884512111544e+00 6.336791459527852339e+02 6.480982487750540599e+01
1.127385878862117430e+01 1.238728662718321161e+00 5.456376277958015635e+02 6.813808634714618506e+01
1.128011818585840587e+01 1.271093552292809514e+00 4.705336956346430952e+02 7.157255132584101887e+01
1.128552835121032416e+01 1.303507315693667623e+00 4.063459512458214817e+02 7.517549947204058469e+01
1.128999178459029729e+01 1.335911607202637796e+00 3.514452877682732606e+02 7.970985586764277286e+01
1.129351919123585191e+01 1.368250628839854155e+00 3.044157945086488439e+02 8.438890178505910455e+01
1.129600648861066681e+01 1.400484993386581056e+00 2.640853200685285742e+02 8.921725420978789600e+01
1.129738005059962447e+01 1.432592623495527517e+00 2.294561966302448184e+02 9.419967745351135591e+01
1.129754929768900418e+01 1.464542072331858957e+00 1.996475250900382434e+02 9.934108785521581808e+01
1.129650518394628911e+01 1.496284509770861026e+00 1.739708629693885769e+02 1.046465586323231491e+02
1.129410696741979514e+01 1.527821059546349503e+00 1.517837058780210953e+02 1.101213248866195045e+02
1.129033897588785607e+01 1.559101005092124126e+00 1.326056271924883276e+02 1.157707887699214950e+02
1.128510686897729798e+01 1.590084426050671906e+00 1.159966982564239686e+02 1.219308591759207019e+02
1.127843436504170072e+01 1.620680574055415324e+00 1.016164864698405239e+02 1.292913083596241961e+02
1.127022515520829948e+01 1.650818469766886842e+00 8.916954370691794907e+01 1.368866265698911775e+02
1.126044094240693738e+01 1.680502236562731122e+00 7.835533521656695655e+01 1.447243083846018123e+02
1.124909635464935498e+01 1.709683625565134424e+00 6.895729660175055642e+01 1.528120875306560720e+02
1.123609227733965987e+01 1.738351182404770823e+00 6.076701949455785012e+01 1.611579445151255925e+02
1.122143438818265082e+01 1.766489604546814141e+00 5.361868010134772078e+01 1.697701144999104770e+02
1.120507238781114445e+01 1.794074076297477838e+00 4.736702804952886936e+01 1.786570954276747898e+02
1.118701472949264009e+01 1.821048561362653029e+00 4.190232759670382023e+01 1.895148235896063227e+02
1.116731030968373695e+01 1.847329151312986140e+00 3.712357486116917471e+01 2.009893465941764532e+02
1.114589743088144402e+01 1.872937218364897349e+00 3.293401221509369492e+01 2.128300170961481399e+02
1.112281444605302561e+01 1.897821420872329190e+00 2.926027055338790106e+01 2.250485187175595172e+02
1.109807295538132088e+01 1.921980188582952831e+00 2.603099810013767978e+01 2.376569079002136391e+02
1.107159452178844994e+01 1.945429903141520533e+00 2.318183093765214764e+01 2.506676258022101536e+02
1.104338187028680274e+01 1.968148367858967962e+00 2.066856607753640418e+01 2.651042586366853016e+02
1.101350299844813918e+01 1.989924750896665984e+00 1.846249523270328297e+01 2.817521953105816692e+02
1.098190741885210997e+01 2.010706918098040141e+00 1.652254101927420393e+01 2.989313610689134180e+02
1.094848199116494314e+01 2.030502073049525791e+00 1.481174978204546022e+01 3.166587072219639936e+02
1.091316598841927110e+01 2.049325732425783642e+00 1.329762346957222796e+01 3.349517259896344967e+02
1.087598102845700865e+01 2.067153362473237888e+00 1.195583061618264864e+01 3.542223528139195992e+02
1.083702270152403280e+01 2.083845382214464692e+00 1.077211377321353325e+01 3.772742177168353237e+02
1.079612474270377653e+01 2.099221965821817637e+00 9.729498402054405304e+00 4.010616585248485535e+02
1.075312645448895310e+01 2.113301442933063878e+00 8.807039112898921829e+00 4.256081471745861222e+02
1.070792971324052445e+01 2.126096794258790279e+00 7.988205550083562478e+00 4.515301260319973835e+02
1.066070187159172633e+01 2.137475722004665624e+00 7.264266794768557745e+00 4.819288691738994430e+02
1.061126208889167621e+01 2.147315262043319795e+00 6.624797046416311730e+00 5.132976242039750332e+02
1.055945615333088483e+01 2.155657041932646845e+00 6.056935651570619861e+00 5.457696711386753350e+02
1.050535828888366474e+01 2.162425837100059756e+00 5.553465025026707025e+00 5.840533314779586362e+02
1.044889125327570234e+01 2.167482880692003455e+00 5.108437021567769243e+00 6.235586082991653711e+02
1.038988758565870008e+01 2.170866405396238985e+00 4.713123676543144569e+00 6.670399610542705204e+02
1.032855219950946513e+01 2.172480429379415767e+00 4.364029932424434044e+00 7.146564823370813428e+02
