# Radius[km]  Mass[Solar Mass] Lambda Central_pressure[MeV fm-3]
1.947165843517742445e+01 1.564064922405390134e-01 1.674435479153989255e+07 2.301770979168990650e+00
1.856950609289438248e+01 1.629358801316570515e-01 1.333269265842446312e+07 2.489488049727599073e+00
1.778624651447358573e+01 1.697455526984850416e-01 1.066270941823917441e+07 2.688336052236274476e+00
1.710053020695305648e+01 1.768591507452850764e-01 8.559012413595840335e+06 2.898654310689417368e+00
1.649686105039241468e+01 1.842845521659410846e-01 6.891187559349942952e+06 3.120941412698199358e+00
1.596299451786187618e+01 1.920332888786284442e-01 5.562867822758942842e+06 3.355503256408292057e+00
1.548824730664019356e+01 2.001258039015342827e-01 4.500072349302414805e+06 3.602582652453324652e+00
1.506510785073030156e+01 2.085721510246491273e-01 3.650176814464930911e+06 3.862912378851191431e+00
1.468164278421927804e+01 2.175291981786624251e-01 2.956789701699011493e+06 4.177407568438177954e+00
1.432964344381486832e+01 2.272526231374188688e-01 2.384670152362617664e+06 4.509383520137757451e+00
1.401094342654083036e+01 2.377366873689246152e-01 1.918023876675374107e+06 4.850334128994925997e+00
1.372530775327592245e+01 2.489707067940730711e-01 1.541269910776722711e+06 5.200502016412485773e+00
1.347136136284970576e+01 2.609416651695993239e-01 1.238896834776400588e+06 5.560136362834323442e+00
1.324728491282338005e+01 2.736260743474110413e-01 9.970144977032885654e+05 5.929493085062928159e+00
1.305076022321823892e+01 2.870120539060909137e-01 8.040214104934344068e+05 6.308835018370463565e+00
1.287942985633109849e+01 3.010855980542930244e-01 6.500700262654850958e+05 6.698432103533149551e+00
1.273075265939232281e+01 3.158389562382148408e-01 5.269857123610923300e+05 7.098561578921783521e+00
1.260273678523749830e+01 3.312501431471375213e-01 4.286130286684394232e+05 7.509508177785400918e+00
1.249319090395470688e+01 3.473188853536978149e-01 3.497167747636659769e+05 7.931564330868225987e+00
1.240017019593489067e+01 3.640266210521845847e-01 2.862786471254773787e+05 8.365030374504202726e+00
1.232192625380816686e+01 3.813670359393806497e-01 2.351535810902721714e+05 8.810214764337164439e+00
1.225690688025740549e+01 3.993310025809486685e-01 1.937921852548196039e+05 9.267434294818743368e+00
1.220373480787333520e+01 4.179015477961706693e-01 1.602489442310696759e+05 9.737014324640165697e+00
1.216115157042148809e+01 4.370815859549275761e-01 1.329343538155285351e+05 1.021928900825841779e+01
1.212797898870010194e+01 4.568618373107376507e-01 1.106179813319245150e+05 1.071460153368147772e+01
1.210326428347025640e+01 4.772334446744529446e-01 9.232916658674321661e+04 1.122330436668186060e+01
1.208600902034230451e+01 4.981857224795444017e-01 7.729530284597413265e+04 1.174575950161225357e+01
1.207551909591145467e+01 5.197139013418460296e-01 6.488065594935254194e+04 1.228233871900168594e+01
1.207101150331006423e+01 5.418091479646717223e-01 5.461781280389642779e+04 1.283342385011560616e+01
1.207179270545953464e+01 5.644640409189447539e-01 4.608688400082568842e+04 1.339940704866806698e+01
1.207736134108099790e+01 5.876715865010497808e-01 3.899313729254191276e+04 1.398069106987939669e+01
1.208716660897984951e+01 6.114228124391153374e-01 3.306482049148050282e+04 1.457768955707794944e+01
1.210073584158064897e+01 6.357113986149464102e-01 2.810236706904763923e+04 1.519082733604982494e+01
1.211761888625170513e+01 6.605266791995114684e-01 2.393691238106917081e+04 1.582054071734611611e+01
1.213742940965847694e+01 6.858631390145217832e-01 2.042985230964778384e+04 1.646727780676267372e+01
1.215983948006973669e+01 7.117065101005093375e-01 1.747229392409165303e+04 1.713149882421346248e+01
1.218452626635967384e+01 7.380501751479290329e-01 1.497141395753932920e+04 1.781367643122434075e+01
1.221116201619203245e+01 7.648858447354250911e-01 1.285011830515723341e+04 1.851429606728028432e+01
1.223954685549213117e+01 7.921992009448644012e-01 1.104904904369810356e+04 1.923385629526551810e+01
1.226931590994651522e+01 8.199872918916559783e-01 9.515349942720602485e+03 1.997286915624221848e+01
1.230034845247223885e+01 8.482314180551102645e-01 8.207544743770011337e+03 2.073186053382038452e+01
1.233242230253190108e+01 8.769211676044016412e-01 7.089875397190142394e+03 2.151137052837805896e+01
1.236529773995346559e+01 9.060480866744409223e-01 6.133444646521711547e+03 2.231195384139828874e+01
1.239882018367361205e+01 9.355980440748151716e-01 5.312664059736701347e+03 2.313418017019618489e+01
1.243284403766289437e+01 9.655584188840738991e-01 4.608096543009873130e+03 2.403540190101024621e+01
1.246724653525302529e+01 9.959254465054446781e-01 4.001589884791777877e+03 2.528508838831795913e+01
1.250197220124161746e+01 1.026688630401666247e+00 3.479223939235535454e+03 2.656855897269848299e+01
1.253691367609855511e+01 1.057827884294365584e+00 3.028597986380928887e+03 2.788672697539407963e+01
1.257196425054169886e+01 1.089322009514081868e+00 2.639737152979816528e+03 2.924053040842654738e+01
1.260700624931259561e+01 1.121149698584228860e+00 2.303461748213615920e+03 3.063093264208908906e+01
1.264194342885716615e+01 1.153286335284405162e+00 2.012577469640822528e+03 3.205892309048341104e+01
1.267665163189948174e+01 1.185721992159910032e+00 1.760424581887017212e+03 3.352551791558950356e+01
1.271103375278164904e+01 1.218424752516452880e+00 1.541598858270107257e+03 3.503176075036928694e+01
1.274503491661701382e+01 1.251381278157125188e+00 1.351570869528267167e+03 3.657872344141885890e+01
1.277851046103879717e+01 1.284563952024312394e+00 1.186226497129436893e+03 3.816750681169737192e+01
1.281143291995182310e+01 1.317959285773979028e+00 1.042263931438506688e+03 3.979924144387582885e+01
1.284367065898698357e+01 1.351541752035654298e+00 9.167313574874834785e+02 4.147508848486283028e+01
1.287518503849534923e+01 1.385293903153138606e+00 8.071485313898034519e+02 4.319624047207986450e+01
1.290586156046698463e+01 1.419189327753356267e+00 7.113889217813001551e+02 4.496392218207444103e+01
1.293565848708350963e+01 1.453212334503324765e+00 6.275921471177083504e+02 4.677939150207424746e+01
1.296453131820450366e+01 1.487335156910791323e+00 5.541708662736550650e+02 4.864394032510344346e+01
1.299235129163749214e+01 1.521549329267245732e+00 4.897934388048923324e+02 5.055889546929721234e+01
1.301912805704943032e+01 1.555821282805697425e+00 4.333160338792433777e+02 5.252561962206920754e+01
1.304477222619945032e+01 1.590132064193110262e+00 3.836602240117723568e+02 5.454551230980380438e+01
1.306921766186321499e+01 1.624463868775798403e+00 3.399736746023050955e+02 5.662001089376293095e+01
1.309242928290878361e+01 1.658791361025068412e+00 3.015217055894258920e+02 5.875059159291632938e+01
1.311434834101300773e+01 1.693090114595036333e+00 2.676293363719417471e+02 6.107280210395128250e+01
1.313453136973311608e+01 1.726963813859512697e+00 2.380101696339865782e+02 6.413095795495695484e+01
1.315256214652189648e+01 1.760181061302557026e+00 2.121678974101942288e+02 6.727178816883966306e+01
1.316833783206887176e+01 1.792761215255639806e+00 1.895141864723988476e+02 7.049752776912671948e+01
1.318179926188118856e+01 1.824703715937861626e+00 1.695876885914779564e+02 7.381047220110117735e+01
1.319282748731722954e+01 1.855981924718518750e+00 1.520253552581221470e+02 7.721297896524735904e+01
1.320147403000792785e+01 1.886636786650820685e+00 1.364773267380638515e+02 8.070746929485439125e+01
1.320767587867894477e+01 1.916645821720758924e+00 1.226969019199583926e+02 8.429642987897284456e+01
1.321144372244946119e+01 1.946030544562237896e+00 1.104445171436991728e+02 8.798241463194956680e+01
1.321278892478047773e+01 1.974788848933958008e+00 9.952963524153229002e+01 9.176804651080006181e+01
1.321168444761188887e+01 2.002925880333856323e+00 8.978153827239218288e+01 9.565601938171215579e+01
1.320812372245200983e+01 2.030434966653962281e+00 8.106596794100357783e+01 9.975636068815225599e+01
1.320196730663471207e+01 2.056999393845456492e+00 7.333349517314861998e+01 1.050183933362144302e+02
1.319288259924215900e+01 2.082373738129555285e+00 6.649316321355104265e+01 1.104226800804743647e+02
1.318072118020768002e+01 2.106565759496936696e+00 6.041689678733559532e+01 1.159730666264299970e+02
1.316552766100507377e+01 2.129636434878032780e+00 5.499679466675988238e+01 1.216735026446050085e+02
1.314718244079728926e+01 2.151578571967928788e+00 5.013566595983351704e+01 1.275280445811455223e+02
1.312575130279276792e+01 2.172448012848899879e+00 4.577027735906096950e+01 1.335408585443981337e+02
1.310121781755348280e+01 2.192268196415984249e+00 4.183571326010935110e+01 1.398220292470683717e+02
1.307368749769000438e+01 2.210815512726447718e+00 3.831401379172156396e+01 1.476371742937452609e+02
1.304284208342749984e+01 2.227857203285037890e+00 3.517583717482261108e+01 1.556635944254748267e+02
1.300869767592999793e+01 2.243464328630030646e+00 3.236095103172438314e+01 1.639070012651760351e+02
1.297103396379989704e+01 2.257642649125119583e+00 2.982596331453010308e+01 1.723732608441136733e+02
1.293004763683748060e+01 2.270505240650509293e+00 2.753116424738377077e+01 1.812805545837040597e+02
1.288580065997491531e+01 2.281837987818627234e+00 2.547204109804599881e+01 1.919634349689661974e+02
1.283814820629142339e+01 2.291492205687506001e+00 2.362604626500158744e+01 2.029351169629663616e+02
1.278692945230422495e+01 2.299531293906327267e+00 2.196206274848211137e+01 2.142034080451676061e+02
1.273226177711227081e+01 2.306033992332887639e+00 2.045604512022872967e+01 2.265855511358221861e+02
1.267427296995667874e+01 2.310771793281038100e+00 1.910615920062006623e+01 2.404856713147478615e+02
1.261284002937969007e+01 2.313757110922785909e+00 1.789280617415863261e+01 2.547615681498334368e+02
1.254785905235763011e+01 2.315009061410341573e+00 1.679766916049510428e+01 2.705381895568448840e+02
