# Radius[km]  Mass[Solar Mass] Lambda Central_pressure[MeV fm-3]
1.908461518681123081e+01 1.632836961665864450e-01 1.477235799000187777e+07 2.223694448615112673e+00
1.821872467983093102e+01 1.709644543709711861e-01 1.161177733235447668e+07 2.407141866899040750e+00
1.747971342090631452e+01 1.789071811226381203e-01 9.191444469985527918e+06 2.602114637071566428e+00
1.684325985720082386e+01 1.871053137170990144e-01 7.319925808861554600e+06 2.809289919902859367e+00
1.629048436929923582e+01 1.955546041354535580e-01 5.861399793286182918e+06 3.029266028523995846e+00
1.580668003015734868e+01 2.042533188261428101e-01 4.716107908493618481e+06 3.262725818999296479e+00
1.538064805536907720e+01 2.131960025445600870e-01 3.811240776381175965e+06 3.510624612848747716e+00
1.500318536698022065e+01 2.223809103199512749e-01 3.093585178379889112e+06 3.773541882414801041e+00
1.466102160994711490e+01 2.320199112598186619e-01 2.510017743607701268e+06 4.095758571612906351e+00
1.434742715727621487e+01 2.423531728709288902e-01 2.030415710412847577e+06 4.429348790573868655e+00
1.406304414631855515e+01 2.533662388164911738e-01 1.639739359112782404e+06 4.772415353634731794e+00
1.380729019844489436e+01 2.650394544339761960e-01 1.323801143350606784e+06 5.125227456630372380e+00
1.357865155744982566e+01 2.773536703772981893e-01 1.069803283481313614e+06 5.488061942479478539e+00
1.337522379334599876e+01 2.902909722957409677e-01 8.659380200105434051e+05 5.861203518416310487e+00
1.319487511143773695e+01 3.038325984686816583e-01 7.021758598315916024e+05 6.244944979393445728e+00
1.303566990544263149e+01 3.179574063818386143e-01 5.710486484743562760e+05 6.639587437830711814e+00
1.289536734285780639e+01 3.326573008991640101e-01 4.656497232532856870e+05 7.045440559890649546e+00
1.277215432333207978e+01 3.479111273743138999e-01 3.808415668852400850e+05 7.462822808465853441e+00
1.266418179762184337e+01 3.637110882367413089e-01 3.124057925907394965e+05 7.892061693068962214e+00
1.256995350699162728e+01 3.800351862182174689e-01 2.570637742869668873e+05 8.333494026821226086e+00
1.248789605551570503e+01 3.968748053294836042e-01 2.121740552258772077e+05 8.787466190741438865e+00
1.241668826950103188e+01 4.142185153624472482e-01 1.756540013987669663e+05 9.254334405542536501e+00
1.235517315381966164e+01 4.320543904015706205e-01 1.458318871693654801e+05 9.734465011149156410e+00
1.230222499559378413e+01 4.503688381787144812e-01 1.214403769125386025e+05 1.022823475415552252e+01
1.225691476163694205e+01 4.691569049522132384e-01 1.013974626518314326e+05 1.073603108344917878e+01
1.221836654694989832e+01 4.884015103191222673e-01 8.488358328082057415e+04 1.125825245423247445e+01
1.218579397897516081e+01 5.080936070936405979e-01 7.124788147815497359e+04 1.179530864068056673e+01
1.215849506643562883e+01 5.282311053804606971e-01 5.993803969474040059e+04 1.234762105748101391e+01
1.213593892125261320e+01 5.487936331080000008e-01 5.054197511322101491e+04 1.291562309050747359e+01
1.211739609580213717e+01 5.697780829014114090e-01 4.271103442979320971e+04 1.349976043688684690e+01
1.210249793877528823e+01 5.912289801633020536e-01 3.615470492743057548e+04 1.425323097325045829e+01
1.209118313465928729e+01 6.133622294342432335e-01 3.061275833246335242e+04 1.512358443818873255e+01
1.208339935702269585e+01 6.361756369392016497e-01 2.593344737347732371e+04 1.601866215597825516e+01
1.207905922341211280e+01 6.596510343604196080e-01 2.198799648139590136e+04 1.693916647193468705e+01
1.207782099781258367e+01 6.837573276621761176e-01 1.866009451689130583e+04 1.788581968299546077e+01
1.207957381254983709e+01 7.084800101464598931e-01 1.585443430407157939e+04 1.885936460448835206e+01
1.208402181330206027e+01 7.337887043936446307e-01 1.348774794415795623e+04 1.986056515300026604e+01
1.209097018388791867e+01 7.596725294164826670e-01 1.149103583342477395e+04 2.089020694580363724e+01
1.210007096126847692e+01 7.861030243162633324e-01 9.802241578077084341e+03 2.194909791731084781e+01
1.211110710588422990e+01 8.130542019606088466e-01 8.374093922695456058e+03 2.303806895304037639e+01
1.212388387357469277e+01 8.405155600082970802e-01 7.164910516571399057e+03 2.415797454159203284e+01
1.213810343738898112e+01 8.684627635270830703e-01 6.139323284064460495e+03 2.530969344514306840e+01
1.215365271900959243e+01 8.968740515833532045e-01 5.268398992018820536e+03 2.649412938899105541e+01
1.217029159066388466e+01 9.257276158525570287e-01 4.527073355421397537e+03 2.771221177068469999e+01
1.218774190341163788e+01 9.550013648125850185e-01 3.895938393287033705e+03 2.896489638929918087e+01
1.220586857860775787e+01 9.846761646808155355e-01 3.357526340024105593e+03 3.025316619542788388e+01
1.222453244979448250e+01 1.014736251570191428e+00 2.897247679228176366e+03 3.157803206247954009e+01
1.224358326445694622e+01 1.045153916413242845e+00 2.503784961440459938e+03 3.294053357988536135e+01
1.226281739637524026e+01 1.075910258451762802e+00 2.166483754931135991e+03 3.434173986883933338e+01
1.228212775612683139e+01 1.106983464052541333e+00 1.877137548090283190e+03 3.578275042121093463e+01
1.230134878647989716e+01 1.138350730234170660e+00 1.628334573361225694e+03 3.726469596228934478e+01
1.232042578809782718e+01 1.169965460019628978e+00 1.414522310935668656e+03 3.915618766865716083e+01
1.233908611383068532e+01 1.201812454118106555e+00 1.230174952324773585e+03 4.126840992431829847e+01
1.235750005224326209e+01 1.233818012457751800e+00 1.071736272551705270e+03 4.344063437360624391e+01
1.237524562903148251e+01 1.265981305817265534e+00 9.346426147376886320e+02 4.567456550724419628e+01
1.239252233973956230e+01 1.298272376547941809e+00 8.163113631322190713e+02 4.797195623566215517e+01
1.240912488398307723e+01 1.330659720671257595e+00 7.139796262902882518e+02 5.033460926446234396e+01
1.242497991529272561e+01 1.363119524471529953e+00 6.251986606735090390e+02 5.276437850895771930e+01
1.244000449951350618e+01 1.395636221083963902e+00 5.481915406781502043e+02 5.526317054889327096e+01
1.245410949037771076e+01 1.428181575212091436e+00 4.811504252133097452e+02 5.783294612449208927e+01
1.246723908729578234e+01 1.460732877494298254e+00 4.228553202022231972e+02 6.047572167499944840e+01
1.247931308992911248e+01 1.493253567140394589e+00 3.720359118590804997e+02 6.319357092093294881e+01
1.249025025937142708e+01 1.525736791540139636e+00 3.276823995895265966e+02 6.598862649127947577e+01
1.250004139270170178e+01 1.558148058496054755e+00 2.889190548785174428e+02 6.886308159691651554e+01
1.250855253176790605e+01 1.590465526854159428e+00 2.549858337137376623e+02 7.181919175157017321e+01
1.251578621412643422e+01 1.622680166494091303e+00 2.252585500109284737e+02 7.490171332257675374e+01
1.252158762500521760e+01 1.654604413783482109e+00 1.992854433304538873e+02 7.896898593096673835e+01
1.252580851056933930e+01 1.686154332884990614e+00 1.765785940262539100e+02 8.315179812233742496e+01
1.252838655811853741e+01 1.717272385884074604e+00 1.567155743764265878e+02 8.745343204581450891e+01
1.252928867196330387e+01 1.747950658120624334e+00 1.392952747048196045e+02 9.187726308699375011e+01
1.252841644175502367e+01 1.778190013633932809e+00 1.239652221924411748e+02 9.642676251652274289e+01
1.252579996153498598e+01 1.807969385595667999e+00 1.104727406996068879e+02 1.011055002139205357e+02
1.252136627611237962e+01 1.837269479000285477e+00 9.856963316963600619e+01 1.059171474687742744e+02
1.251504776131277730e+01 1.866113265874367322e+00 8.803060349984917821e+01 1.108654798615086889e+02
1.250690700380552478e+01 1.894454714572800347e+00 7.870602147049412167e+01 1.159543802259909029e+02
1.249690666185394328e+01 1.922304919028243742e+00 7.043375888136819185e+01 1.211878416962936882e+02
1.248498515574279999e+01 1.949559156190638687e+00 6.310718495264511319e+01 1.276747488169368125e+02
1.247110616284811968e+01 1.976052767374767205e+00 5.663313187697360007e+01 1.346681799369799251e+02
1.245518887716301570e+01 2.001770517419212414e+00 5.090400878656909356e+01 1.418602744349208820e+02
1.243721008986682008e+01 2.026699931339606131e+00 4.581669361522243378e+01 1.492566757691767236e+02
1.241714277811129286e+01 2.050863006459786142e+00 4.129113154955422971e+01 1.568631877126784389e+02
1.239497528085998823e+01 2.074259214252435868e+00 3.725512312925451397e+01 1.646857789069482578e+02
1.237068465788093263e+01 2.096880169608551725e+00 3.365029123568899649e+01 1.727305875455442958e+02
1.234430092866864115e+01 2.118755255983403529e+00 3.042283741099401340e+01 1.810039261905495778e+02
1.231585849154824253e+01 2.139753066902699175e+00 2.754047785712804952e+01 1.914241156474341778e+02
1.228532093669222292e+01 2.159715569585423101e+00 2.497924820858853678e+01 2.022242908657341331e+02
1.225260701189399803e+01 2.178651401148935296e+00 2.268801223448622295e+01 2.133312681750144577e+02
1.221769321533359864e+01 2.196584337931043240e+00 2.063718313856441000e+01 2.247537629452696137e+02
1.218051161450421027e+01 2.213517205655046283e+00 1.879704846126267981e+01 2.365007381252302423e+02
1.214110501652064755e+01 2.229497591984092697e+00 1.713764380686961886e+01 2.485814112753682252e+02
1.209960814453424938e+01 2.244410925230830856e+00 1.565037700859939918e+01 2.632920605010236272e+02
1.205591912521512654e+01 2.258036865179309682e+00 1.432316584155446293e+01 2.787142911304439963e+02
1.200999266955891009e+01 2.270437768549989688e+00 1.313138294903665759e+01 2.945746232266504876e+02
1.196165023302172870e+01 2.281592600519783520e+00 1.206099554982149691e+01 3.108855019994068130e+02
1.191088135652045388e+01 2.291526716181754519e+00 1.109421131464090671e+01 3.286275967741262320e+02
1.185794350656619223e+01 2.300052892861796039e+00 1.023041631222832848e+01 3.489931812559304376e+02
1.180267807400459290e+01 2.307097490057287370e+00 9.456893906437153774e+00 3.699372937501748311e+02
1.174479445053070847e+01 2.312660275219508232e+00 8.761276192068224944e+00 3.914763685831853763e+02
1.168454875607388210e+01 2.316730543486551053e+00 8.137163258879843042e+00 4.166734727100280793e+02
1.162192642812463639e+01 2.319133368567669162e+00 7.580329018022259113e+00 4.430484552819013970e+02
1.155664131044771814e+01 2.319876804152140704e+00 7.081320688425634557e+00 4.708870967111270147e+02
