# Radius[km]  Mass[Solar Mass] Lambda Central_pressure[MeV fm-3]
1.899065017356689111e+01 1.566632862805309445e-01 1.548151803877304867e+07 2.332172155862338947e+00
1.793270329959227283e+01 1.656549933296540267e-01 1.161986359061008692e+07 2.534948119936879962e+00
1.705990743275600252e+01 1.751583355961507382e-01 8.798792439656682312e+06 2.749317518302551999e+00
1.633348917109692522e+01 1.851566391311400828e-01 6.716898860338297673e+06 2.975826482251858529e+00
1.572272602706923195e+01 1.956588271789579669e-01 5.163193182950208895e+06 3.226732851631333610e+00
1.519991725476955402e+01 2.068186513063320076e-01 3.980907850801038556e+06 3.523095054117124203e+00
1.475156210244285049e+01 2.186790796507774581e-01 3.079092748604091350e+06 3.828584420851871783e+00
1.436781883494231238e+01 2.312164032134655656e-01 2.390368753532440402e+06 4.143482044115666341e+00
1.403946518293180823e+01 2.444097368170498608e-01 1.864393822464679368e+06 4.468077673080005141e+00
1.375859195352463793e+01 2.582401878300474851e-01 1.460785250476179412e+06 4.802669980416960804e+00
1.351844085207798862e+01 2.726874416119596245e-01 1.150164636622678023e+06 5.147566837119140537e+00
1.331309696538140663e+01 2.877301741720876826e-01 9.100510561140673235e+05 5.503085595783399953e+00
1.313765314835055875e+01 3.033609039852066536e-01 7.236150502373807831e+05 5.869553382618924786e+00
1.298771499211121139e+01 3.195678603777736271e-01 5.780286525144551415e+05 6.247307398448372240e+00
1.285989521675312375e+01 3.363300128588880833e-01 4.639414469051056076e+05 6.636695228979083261e+00
1.275095485991970534e+01 3.536432304110990188e-01 3.739635902476205956e+05 7.038075164629777447e+00
1.265843780801358243e+01 3.714921224193376559e-01 3.027423011168064550e+05 7.451816530207071132e+00
1.258010996272780346e+01 3.898716284681114641e-01 2.460650744397829694e+05 7.878300024735138685e+00
1.251393082150212877e+01 4.087596054177446980e-01 2.008208234606055485e+05 8.317918071751266851e+00
1.245844809122691466e+01 4.281564247076927177e-01 1.644215852667182626e+05 8.771075180389512838e+00
1.241213692246544831e+01 4.480553892259299675e-01 1.351017264289933955e+05 9.238188317584812737e+00
1.237384477345732137e+01 4.684391216553348003e-01 1.113948939498049440e+05 9.719687291739987245e+00
1.234249720709292575e+01 4.893026608983438441e-01 9.212813249899023504e+04 1.021601514820860857e+01
1.231713040888254440e+01 5.106367328509560100e-01 7.641325606552435784e+04 1.072762857695778571e+01
1.229693043337318059e+01 5.324324351587018667e-01 6.355941149774688529e+04 1.125499833278579409e+01
1.228125502012545844e+01 5.546795375304092168e-01 5.300425484822100407e+04 1.179860966848126758e+01
1.226939211677463426e+01 5.774191847517452514e-01 4.429196847386096488e+04 1.251801470857209786e+01
1.226123079154060491e+01 6.008131348552514517e-01 3.705354218479080737e+04 1.334829432026992713e+01
1.225658758873900744e+01 6.248405470125388828e-01 3.103596465995511608e+04 1.420414432631954327e+01
1.225520461342157219e+01 6.494995424403060547e-01 2.603151254683052684e+04 1.508635222656809560e+01
1.225673629298656842e+01 6.747461457795250750e-01 2.187099128791892508e+04 1.599572977375462379e+01
1.226086099731283596e+01 7.005687099627583292e-01 1.840096096128238059e+04 1.693311372043428520e+01
1.226730591383724622e+01 7.269422767723466849e-01 1.550989153162374168e+04 1.789936658890598409e+01
1.227570765818942711e+01 7.538423907396434309e-01 1.309624146173958979e+04 1.889537746485164149e+01
1.228585989815436719e+01 7.812587115150128048e-01 1.107700118943925372e+04 1.992206281541738377e+01
1.229738339792553958e+01 8.091531817965180728e-01 9.385514207438185622e+03 2.098036733248953922e+01
1.231007982011461444e+01 8.375187847376739381e-01 7.965046795999543974e+03 2.207126480194128959e+01
1.232370042371905505e+01 8.663225734043759063e-01 6.772259653187496951e+03 2.319575899964970489e+01
1.233800524847396574e+01 8.955587634741577485e-01 5.766389466247969722e+03 2.435488461510773206e+01
1.235277495883746823e+01 9.251927607349170746e-01 4.918115028044006976e+03 2.554970820348107097e+01
1.236783667359938299e+01 9.552078320894017427e-01 4.201228560849715905e+03 2.678132916698570654e+01
1.238298613478936794e+01 9.855820547349553040e-01 3.594133054439036187e+03 2.805088076648940998e+01
1.239798837391056274e+01 1.016298599856768403e+00 3.079080822179417282e+03 2.935953116426765419e+01
1.241280880489621374e+01 1.047329731210483450e+00 2.641590772413856030e+03 3.092808474220986881e+01
1.242731342935513617e+01 1.078670820914277684e+00 2.269293086745220990e+03 3.280476399349614525e+01
1.244154647170853245e+01 1.110300303156886326e+00 1.952433677779763229e+03 3.473923995308539503e+01
1.245522219375250472e+01 1.142194288576419137e+00 1.681596115627472727e+03 3.673329260521754236e+01
1.246840315548973699e+01 1.174318071892795246e+00 1.450560391962741505e+03 3.878875675289270220e+01
1.248093865148404191e+01 1.206635778024781613e+00 1.252999452470917731e+03 4.090752370614265487e+01
1.249269558789405821e+01 1.239130274215740179e+00 1.083693794473342450e+03 4.309154302229639910e+01
1.250358030983048785e+01 1.271765218844048917e+00 9.385781908801367308e+02 4.534282429984141771e+01
1.251350998054399533e+01 1.304515262356676031e+00 8.138387588617976007e+02 4.766343902753090589e+01
1.252236588767179448e+01 1.337349962753641153e+00 7.065987981851031918e+02 5.005552249043870461e+01
1.253006992830673028e+01 1.370242077910386547e+00 6.142370028863725793e+02 5.252127573471550903e+01
1.253657639094191900e+01 1.403166153285492657e+00 5.345380634270484279e+02 5.506296759285449127e+01
1.254171057672366452e+01 1.436096539389462245e+00 4.656574024830895837e+02 5.768293677132951558e+01
1.254546839358303956e+01 1.468986855987939322e+00 4.061422115560631596e+02 6.088961576974312351e+01
1.254777281606624939e+01 1.501731733721924256e+00 3.547532236879725360e+02 6.450806095950271413e+01
1.254864958384530915e+01 1.534282190676996560e+00 3.102710909352404087e+02 6.823794459618893882e+01
1.254790527149751611e+01 1.566661545120840326e+00 2.717078449456162730e+02 7.208269868631356303e+01
1.254560421587320107e+01 1.598793667238160410e+00 2.382648210701536300e+02 7.604586093302179961e+01
1.254168779044993975e+01 1.630680242618228082e+00 2.092007175762814484e+02 8.013107799126666464e+01
1.253609329252956961e+01 1.662285042761280307e+00 1.838957415929942272e+02 8.434210882323326075e+01
1.252876325616200326e+01 1.693593336148637274e+00 1.618242631613739206e+02 8.868282815710196587e+01
1.251968159945061920e+01 1.724576168916843510e+00 1.425533994981406636e+02 9.315723005233148513e+01
1.250876109593754570e+01 1.755215962232348437e+00 1.257001432226614241e+02 9.776943157474374857e+01
1.249599198640126652e+01 1.785475729375587850e+00 1.109478082966860768e+02 1.033400632359432763e+02
1.248140833869879884e+01 1.815174244236140488e+00 9.807540920595748446e+01 1.095518415022052352e+02
1.246494537150365467e+01 1.844306646666284299e+00 8.682246370878687003e+01 1.159549259473211009e+02
1.244658152568330678e+01 1.872863603275488842e+00 7.696342606251123186e+01 1.225552082906180118e+02
1.242628736136956036e+01 1.900819595024830333e+00 6.830385908324976185e+01 1.293587617006416508e+02
1.240407582290739441e+01 1.928188050415721388e+00 6.069045046596900761e+01 1.363718463833072292e+02
1.237987423913026319e+01 1.954928690235584687e+00 5.398117531729817387e+01 1.436009153421512963e+02
1.235367128654019631e+01 1.981031083329428677e+00 4.806481377550735345e+01 1.510526203159829208e+02
1.232548090099148297e+01 2.006481527464230474e+00 4.283676525483978992e+01 1.598031865542754417e+02
1.229540953321245134e+01 2.031098963147410341e+00 3.823925821360786870e+01 1.696599229144058540e+02
1.226340795493250191e+01 2.054928065141557347e+00 3.417871530037087524e+01 1.798202204269470599e+02
1.222943818929984161e+01 2.077889007682608646e+00 3.059249804308094411e+01 1.902934279645770630e+02
1.219350050519189743e+01 2.100019599492539246e+00 2.741830516250342242e+01 2.010891823202819069e+02
1.215558100137956288e+01 2.121337466998054921e+00 2.459769989323034522e+01 2.122174170745306583e+02
1.211566318631311567e+01 2.141817384830564386e+00 2.209030544203553603e+01 2.236883717355389365e+02
1.207384764812602818e+01 2.161374786916741453e+00 1.986468662125860263e+01 2.377107734425225374e+02
1.203016137266569174e+01 2.179795833250533388e+00 1.790068436024547793e+01 2.526242475701172339e+02
1.198442197441635138e+01 2.197060571594899869e+00 1.616042359560839969e+01 2.679970168667426265e+02
1.193660887623836331e+01 2.213194131418967814e+00 1.461219006073369364e+01 2.838432263968214784e+02
1.188662157635222272e+01 2.228213806820212195e+00 1.323313555317324663e+01 3.001774568549784021e+02
1.183458684263118244e+01 2.242099568170677681e+00 1.200255406868791930e+01 3.189957921726325480e+02
1.178057795364268934e+01 2.254377619768693997e+00 1.092218803712893482e+01 3.397276774291115089e+02
1.172422927443299834e+01 2.265021172382962966e+00 9.967685407161285482e+00 3.610980493763328809e+02
1.166526186495387130e+01 2.274056985717340940e+00 9.119390247067325816e+00 3.833305086555653247e+02
1.160406367247860437e+01 2.281141714416140331e+00 8.378079295465232335e+00 4.096801933032837155e+02
1.154021615757444330e+01 2.285868859435100653e+00 7.736143237872335376e+00 4.368413778577743187e+02
1.147377544218119283e+01 2.287943645366525836e+00 7.188129619302920048e+00 4.679277055286649443e+02
