# Radius[km]  Mass[Solar Mass] Lambda Central_pressure[MeV fm-3]
1.913095711553473421e+01 1.529144645582625195e-01 1.639828631886781566e+07 2.384091210424041485e+00
1.811615884496778506e+01 1.607213005935653194e-01 1.262057051867148094e+07 2.572475431846025451e+00
1.726419660074106588e+01 1.689566677276807538e-01 9.782975340500412509e+06 2.770993775523717062e+00
1.654393777252015596e+01 1.776120249636574389e-01 7.634803119381034747e+06 2.979232376436134810e+00
1.593074703015642157e+01 1.866773924724358380e-01 5.993765629240290262e+06 3.198277558034370305e+00
1.540481404116320618e+01 1.961579543717732466e-01 4.730944573434907943e+06 3.428047369219172413e+00
1.495176757648458654e+01 2.060420386846033292e-01 3.753508708114829380e+06 3.669352458314635967e+00
1.455949218905550246e+01 2.163267283517486261e-01 2.992159657353655901e+06 3.922510771574474031e+00
1.421839923314232301e+01 2.270134602735721374e-01 2.395670400201399811e+06 4.188039240402540386e+00
1.392070482263065223e+01 2.380985351365446923e-01 1.926978145703906892e+06 4.466637020091333454e+00
1.366011564323301464e+01 2.495774711775142762e-01 1.555861798438002588e+06 4.758599314126614743e+00
1.343115545457716919e+01 2.614566045946425388e-01 1.261253815569955157e+06 5.064895190157214344e+00
1.322972080765527991e+01 2.737264429922054432e-01 1.026047747470985400e+06 5.385766184316400640e+00
1.305204385339576412e+01 2.863867317228633302e-01 8.377001738036340103e+05 5.722241265171826186e+00
1.289498652431906045e+01 2.994441418946638955e-01 6.861721747853531269e+05 6.074778638366194805e+00
1.275620390684797911e+01 3.128828439478580914e-01 5.638281487459841883e+05 6.444152181083080855e+00
1.263327714470335117e+01 3.267104891208708062e-01 4.647172690911153913e+05 6.831415737578192982e+00
1.252439598675380061e+01 3.409235332494702231e-01 3.841893183490824886e+05 7.236679979877366442e+00
1.242783924907909388e+01 3.555170174832908425e-01 3.185022442644435796e+05 7.662033673710427095e+00
1.234216009000274639e+01 3.704997678501638081e-01 2.647353982182986219e+05 8.118923115484594888e+00
1.226576250433585891e+01 3.860296083498619413e-01 2.202275946744620451e+05 8.652680148119596737e+00
1.219819986830696301e+01 4.021777509952679797e-01 1.832988643055709545e+05 9.201234605921019494e+00
1.213902132422513702e+01 4.189398253652146242e-01 1.526821337065359112e+05 9.764996720095513894e+00
1.208770306391524407e+01 4.362899448114977430e-01 1.273624485744300910e+05 1.034438809475015120e+01
1.204380461603721741e+01 4.542207001310293868e-01 1.063933341818180052e+05 1.093984202218501700e+01
1.200660914794408285e+01 4.727060179917848548e-01 8.903078425680135842e+04 1.155180380692674014e+01
1.197568468374208450e+01 4.917407344931874480e-01 7.464604519926739158e+04 1.218073109874519311e+01
1.195043624424797990e+01 5.113121881216846631e-01 6.270475609817939403e+04 1.282709423490250700e+01
1.193030982548749641e+01 5.313981252778644526e-01 5.278040493335927022e+04 1.349137659189034544e+01
1.191486505883481151e+01 5.519977362495332995e-01 4.451711858403189399e+04 1.417407494691827097e+01
1.190356103297291135e+01 5.730878677979008851e-01 3.762334272422052891e+04 1.487569984942397916e+01
1.189600189068549163e+01 5.946607323116833710e-01 3.186195924764942902e+04 1.559677600288271471e+01
1.189181056958225824e+01 6.167012136913727627e-01 2.703703967202584317e+04 1.633784265720177942e+01
1.189062612079990622e+01 6.392041916828010706e-01 2.298502220949211187e+04 1.709945401199341575e+01
1.189204392371813945e+01 6.621453136158322872e-01 1.958056612006042269e+04 1.788217963102769303e+01
1.189581847745643017e+01 6.855217099334693920e-01 1.671191062437884102e+04 1.868660486817533339e+01
1.190161573899605152e+01 7.093230992300291193e-01 1.428714370604380565e+04 1.951333130515897096e+01
1.190908085447699349e+01 7.335247407191073377e-01 1.223616407484589945e+04 2.036297720144037626e+01
1.191808268348682809e+01 7.581243571693367933e-01 1.049760541698317866e+04 2.123617795657976970e+01
1.192838576587177890e+01 7.831069207665517506e-01 9.020503298980020190e+03 2.213358658541338997e+01
1.193975561345423664e+01 8.084570998052499347e-01 7.763948081202731373e+03 2.305587420640438623e+01
1.195195084609449054e+01 8.342121988140330791e-01 6.690168364865285184e+03 2.424922664755725421e+01
1.196525623728592969e+01 8.605127600436722757e-01 5.768192587114318485e+03 2.557408578247070707e+01
1.197964434222112828e+01 8.873371688579965166e-01 4.977414564307163346e+03 2.693567418314792405e+01
1.199501844492247393e+01 9.146656329107729633e-01 4.298385179209897615e+03 2.833501010045648982e+01
1.201126632130870675e+01 9.424575647957125213e-01 3.716065645366654735e+03 2.977314001438338309e+01
1.202828290911610409e+01 9.707089280037128898e-01 3.215742312338258216e+03 3.125113941663506623e+01
1.204593419204764437e+01 9.993849360436597440e-01 2.785790561865371274e+03 3.277011361493369890e+01
1.206414811461507597e+01 1.028461950526851965e+00 2.416241263490482652e+03 3.433119855961084710e+01
1.208268265021220955e+01 1.057919729415159660e+00 2.097967930734474521e+03 3.593556169311717952e+01
1.210154380043269207e+01 1.087724139204647944e+00 1.823874157715674301e+03 3.758440282308310998e+01
1.212053266597392920e+01 1.117865274443588186e+00 1.587316323544051329e+03 3.927895501958342805e+01
1.213958869403246865e+01 1.148302210370039100e+00 1.383250403689538189e+03 4.102048553727705382e+01
1.215850292515492193e+01 1.179025477163186286e+00 1.206703913978954915e+03 4.281029676311122500e+01
1.217730179190867368e+01 1.210012706477298083e+00 1.053875660310576677e+03 4.464972719029913151e+01
1.219584956508648510e+01 1.241232689618448681e+00 9.215339912759296794e+02 4.654015241929936053e+01
1.221397758340165041e+01 1.272662926829892349e+00 8.065835412147262105e+02 4.848298618654543191e+01
1.223167602511356478e+01 1.304281384286862577e+00 7.068534893888181614e+02 5.047968142169512618e+01
1.224881065584716744e+01 1.336060197146017536e+00 6.200801778221131144e+02 5.253173133419011265e+01
1.226533422961761488e+01 1.367982746057164967e+00 5.445026273526607383e+02 5.467169991106211313e+01
1.228103276322529602e+01 1.400010750810355198e+00 4.785984175652631052e+02 5.754177028996652155e+01
1.229611843680755179e+01 1.432102245860787049e+00 4.212226043646530798e+02 6.049140805451182246e+01
1.231044105558869362e+01 1.464238705602432189e+00 3.711009441082076137e+02 6.352281906309928416e+01
1.232398853067728872e+01 1.496394968986825891e+00 3.273524042142381063e+02 6.663827032746903001e+01
1.233665763592221865e+01 1.528540321738208085e+00 2.890719846287719292e+02 6.984009170806294264e+01
1.234844381225208210e+01 1.560653585045728819e+00 2.555336735418077865e+02 7.313067765638852791e+01
1.235927917411550503e+01 1.592703792762908854e+00 2.261683266258543767e+02 7.651248900568658939e+01
1.236909731892203546e+01 1.624666396749529174e+00 2.003563240761829718e+02 7.998805481124188077e+01
1.237787184675088170e+01 1.656525304404759424e+00 1.777126302724707614e+02 8.355997424171297894e+01
1.238552410554354388e+01 1.688249563659746322e+00 1.577401478515037354e+02 8.723091852289557835e+01
1.239202186710698150e+01 1.719815656724921427e+00 1.401679426851725623e+02 9.100363293537314746e+01
1.239732173852782360e+01 1.751203962785255808e+00 1.246757348006591144e+02 9.488093886754893447e+01
1.240139223586407802e+01 1.782387714545329738e+00 1.109829276426999201e+02 9.886573592559419410e+01
1.240415245491861285e+01 1.813347460957263291e+00 9.888908624619067211e+01 1.029610041018909641e+02
1.240554340522482235e+01 1.843958190849055878e+00 8.820818592019622884e+01 1.080614642226195059e+02
1.240530611057060462e+01 1.873911711674485447e+00 7.884427812029900906e+01 1.136315153919431822e+02
1.240330657042943585e+01 1.903185452258784993e+00 7.060110148118302220e+01 1.193559859137282473e+02
1.239943112923239532e+01 1.931766453958496887e+00 6.332878863875083653e+01 1.252391567785238209e+02
1.239364292797934297e+01 1.959649633673189006e+00 5.689398528667491206e+01 1.312854276594134433e+02
1.238591552930975404e+01 1.986847687300961729e+00 5.118319659950036993e+01 1.374993202022682510e+02
1.237620578856107656e+01 2.013352178130891179e+00 4.610692455692884550e+01 1.438854814072166448e+02
1.236448951175026245e+01 2.039169121011333186e+00 4.158282482891949883e+01 1.504486871038589015e+02
1.235078829905535258e+01 2.064294118389813804e+00 3.754232306481249282e+01 1.571938455228258817e+02
1.233503720809716775e+01 2.088610861960477738e+00 3.394103512375203024e+01 1.650914130413560770e+02
1.231693041836510538e+01 2.111569186812205068e+00 3.077639091011095829e+01 1.739022160980053116e+02
1.229607268820244137e+01 2.133080385127407386e+00 2.798473182936750447e+01 1.829572823510441424e+02
1.227232043902878544e+01 2.153171634698218817e+00 2.551119280367300490e+01 1.922633835451962057e+02
1.224560181823851934e+01 2.171897870513225914e+00 2.330499744293657827e+01 2.018274791592658062e+02
1.221584368692942490e+01 2.189236614415231319e+00 2.133397326173776776e+01 2.123081134759854649e+02
1.218296749103949494e+01 2.204596580732027800e+00 1.960827990734745185e+01 2.243063832952580867e+02
1.214647270565792248e+01 2.217789943352530546e+00 1.809566182606810969e+01 2.366372829234547055e+02
1.210600124504837360e+01 2.228825875989468575e+00 1.676156559590006623e+01 2.497853335447369716e+02
1.206183469015566523e+01 2.236981846876444635e+00 1.562590299073220912e+01 2.647766685107719695e+02
1.201295506871068497e+01 2.241834946409904550e+00 1.466806011193115822e+01 2.811821540489081599e+02
1.195915730365426199e+01 2.243279137491273278e+00 1.386718695507904719e+01 2.990810864860826541e+02
