# Radius[km]  Mass[Solar Mass] Lambda Central_pressure[MeV fm-3]
1.907174589184631586e+01 1.652482824156868702e-01 1.447463644561916590e+07 2.196865060405952974e+00
1.818950895876059803e+01 1.733152402032369643e-01 1.127905973729353584e+07 2.391535123017407560e+00
1.743962636618674722e+01 1.816313439420825793e-01 8.854526248731911182e+06 2.599620640706982400e+00
1.679588396703814368e+01 1.901935475899678707e-01 6.996490637754255906e+06 2.822129671091296199e+00
1.623716583915820166e+01 1.990107853971513352e-01 5.558789454918880947e+06 3.059808700689205629e+00
1.574781587867698462e+01 2.080995386155395088e-01 4.436904233745063655e+06 3.313161131924661884e+00
1.531580248196728355e+01 2.174770133065631883e-01 3.555145941557300743e+06 3.583487191402768612e+00
1.493194230286976953e+01 2.271560844703414961e-01 2.858413703705170192e+06 3.871113606494323012e+00
1.458892760091593921e+01 2.371618840346310098e-01 2.304521414660519455e+06 4.176823163296867314e+00
1.428080473298248876e+01 2.475171115813918910e-01 1.863115204753513914e+06 4.501863474208541049e+00
1.400284779985637940e+01 2.582543393938843135e-01 1.509670246866028989e+06 4.846532662437528671e+00
1.375136851058670473e+01 2.693872406425953936e-01 1.224282082639335422e+06 5.211662415483855781e+00
1.352354976191184299e+01 2.809421552479103301e-01 9.950326870447659167e+05 5.598243613544060970e+00
1.331651501515636049e+01 2.929460597805489397e-01 8.097951151120602153e+05 6.007244988614268699e+00
1.312836973937244345e+01 3.054155119719124678e-01 6.599558177413729718e+05 6.439273923202322614e+00
1.295643965519628615e+01 3.184538169354986237e-01 5.379549976891200058e+05 6.940446219934763405e+00
1.279866670380919658e+01 3.322938262006183696e-01 4.375168782550964970e+05 7.480348015894394464e+00
1.265535381939799819e+01 3.469243161471624592e-01 3.555406742060955148e+05 8.036610027522838706e+00
1.252649591220389169e+01 3.623439308776211232e-01 2.888203639675618033e+05 8.609728005452408794e+00
1.241141819888068198e+01 3.785000050902970758e-01 2.348627607236533077e+05 9.200212722653398956e+00
1.230941704218487587e+01 3.953909330219245177e-01 1.912374212756352208e+05 9.808590429644086228e+00
1.221944395871334876e+01 4.129751918920704923e-01 1.559994091238991241e+05 1.043540332349458311e+01
1.214079128195173141e+01 4.312540537144388120e-01 1.275329006269160745e+05 1.108121003104256808e+01
1.207224061054866837e+01 4.501852977312087445e-01 1.044898942945336021e+05 1.174658610675141368e+01
1.201292928424160245e+01 4.697538571144802555e-01 8.583850035836518509e+04 1.243212454565469116e+01
1.196193473517879546e+01 4.899419946307598250e-01 7.069343996767479985e+04 1.313843631184388094e+01
1.191849272676628679e+01 5.107315112733639140e-01 5.837401170235309110e+04 1.386615088297046938e+01
1.188181489354963993e+01 5.321104324235896854e-01 4.832944879074829078e+04 1.461591681124769160e+01
1.185097876382404536e+01 5.540403081657890860e-01 4.011505333127979247e+04 1.538840230145179433e+01
1.182546428695055241e+01 5.765217024411226632e-01 3.338294240289955633e+04 1.618429580643810795e+01
1.180472821497519753e+01 5.995326449090365717e-01 2.784762797392698121e+04 1.700430664070252362e+01
1.178808093626023812e+01 6.230558236773861003e-01 2.328818649997929970e+04 1.784916561253512768e+01
1.177508265142402522e+01 6.470729595259234745e-01 1.951856558471159224e+04 1.871962567532973765e+01
1.176530224345556164e+01 6.715890457422952764e-01 1.639853500467100457e+04 1.972205095268881436e+01
1.175844213520202963e+01 6.968108409206970055e-01 1.378094997908915320e+04 2.096820863554104974e+01
1.175470504792069093e+01 7.227878144970721896e-01 1.159074912030487394e+04 2.225212764573351976e+01
1.175391870689171192e+01 7.494793587059084272e-01 9.759325913799944828e+03 2.357495223480205127e+01
1.175589383082439809e+01 7.768590654644920157e-01 8.227445490159614565e+03 2.493786132762871333e+01
1.176050330882077866e+01 8.048878383125624980e-01 6.945749888027646193e+03 2.634206957312073882e+01
1.176716696394030137e+01 8.335522251191416210e-01 5.871013411128084044e+03 2.778882842672723896e+01
1.177597108397507597e+01 8.628089822574693812e-01 4.971276677991532779e+03 2.927942726575865962e+01
1.178650934564759645e+01 8.926207870185801641e-01 4.216082294114549768e+03 3.081519453850288670e+01
1.179873888999126308e+01 9.229693158356054861e-01 3.581826697928290287e+03 3.239749894816209519e+01
1.181208637121051908e+01 9.538194374205415382e-01 3.047719560967162124e+03 3.402775067266534847e+01
1.182653210494250828e+01 9.851537128165224200e-01 2.597871538571931069e+03 3.570740262144440891e+01
1.184186077337271215e+01 1.016923452455600119e+00 2.217483219578765329e+03 3.743795173029258905e+01
1.185789274485860645e+01 1.049111671530806644e+00 1.896178465700629204e+03 3.922094029546064320e+01
1.187437613299929673e+01 1.081684163778984908e+00 1.624136790462867793e+03 4.105795734817860421e+01
1.189109945518281464e+01 1.114612039777302055e+00 1.393089464960208034e+03 4.295064007082885382e+01
1.190805048012627765e+01 1.147866787140129796e+00 1.196868978372185893e+03 4.490067525603232923e+01
1.192488198072377514e+01 1.181419033866943913e+00 1.029749884791059003e+03 4.690980080994816603e+01
1.194162817711996283e+01 1.215248189710202764e+00 8.872450271316122326e+02 4.942839690935586106e+01
1.195809975278023174e+01 1.249355357764424523e+00 7.653844679624525043e+02 5.223699946290193452e+01
1.197438141902805420e+01 1.283706505437962830e+00 6.612205782709993400e+02 5.513070887078308857e+01
1.199041158334332202e+01 1.318259336933241377e+00 5.721008827789188445e+02 5.811210405846736649e+01
1.200604986051058098e+01 1.352982858273504174e+00 4.956571339369962743e+02 6.118384209855461364e+01
1.202106827957599577e+01 1.387847446982726440e+00 4.300080068414873153e+02 6.434866057880707046e+01
1.203554236410903755e+01 1.422803146191237378e+00 3.735817745795722544e+02 6.760938004193650386e+01
1.204939709299661033e+01 1.457817657755619001e+00 3.250416118083846300e+02 7.096890649932217343e+01
1.206231872571467534e+01 1.492867554790148654e+00 2.831342424628011258e+02 7.443023402089995955e+01
1.207444754586566305e+01 1.527909432453200544e+00 2.469691215150076289e+02 7.799644740353092232e+01
1.208556759117278823e+01 1.562911425811458699e+00 2.157089347169040821e+02 8.167072492022749941e+01
1.209568632704162816e+01 1.597845296239781776e+00 1.886426597176531459e+02 8.545634115268701692e+01
1.210464491806812504e+01 1.632655652487867037e+00 1.651606355247165538e+02 8.935666990965725631e+01
1.211240588570042220e+01 1.667361391383524349e+00 1.447626579045150379e+02 9.337518723373509033e+01
1.211884937281761587e+01 1.701798709446808333e+00 1.270717614330785494e+02 9.836245476242760333e+01
1.212380857671120005e+01 1.735725745772772610e+00 1.117811323223452291e+02 1.038564079755946921e+02
1.212708211644104850e+01 1.769108997924059290e+00 9.851321577366891802e+01 1.095168400931003418e+02
1.212848824767128519e+01 1.801950586342276450e+00 8.697535837099279377e+01 1.153487957930687173e+02
1.212817591553398699e+01 1.834190920029394434e+00 7.692210803320460855e+01 1.213574726185018591e+02
1.212601393020914564e+01 1.865871834064470214e+00 6.813450258426387052e+01 1.275482256094228148e+02
1.212190681099111167e+01 1.896926254061633399e+00 6.043833008689029640e+01 1.339265720753826940e+02
1.211586871359759598e+01 1.927371418430765537e+00 5.368818538317783151e+01 1.404981965125854799e+02
1.210785760888923690e+01 1.957188103927809619e+00 4.774715368555215633e+01 1.472689556700127298e+02
1.209784195318252209e+01 1.986363607639442863e+00 4.251531511481552883e+01 1.545605184023556262e+02
1.208568274311279289e+01 2.014553856489238015e+00 3.793757162454003407e+01 1.635386887835641119e+02
1.207114389967463985e+01 2.041580752051176173e+00 3.393828147307485921e+01 1.727889175369563759e+02
1.205402572429464314e+01 2.067429012446226899e+00 3.042785100910759155e+01 1.823194486314853577e+02
1.203429044027338790e+01 2.092112735279508140e+00 2.733434961461615487e+01 1.921387758465527327e+02
1.201191975865715023e+01 2.115689345794051324e+00 2.459963955539823033e+01 2.022556503418168177e+02
1.198684004804866454e+01 2.138163646819835062e+00 2.216989287884281978e+01 2.126790884563824875e+02
1.195914294406951583e+01 2.159390043164355344e+00 2.002155777999700348e+01 2.253300155901474398e+02
1.192864701607913069e+01 2.179092338763742198e+00 1.812983114610320001e+01 2.387452550793717023e+02
1.189515243766217090e+01 2.197306497285385962e+00 1.645614142111311651e+01 2.525670059248001280e+02
1.185862770510366815e+01 2.214030451933227006e+00 1.496960383377730608e+01 2.668075863174609026e+02
1.181895280259811898e+01 2.229325412421232944e+00 1.364133095172172361e+01 2.820836584060323844e+02
1.177643653582574146e+01 2.243028930973583801e+00 1.246503834754454587e+01 2.999911468363856670e+02
1.173076570612272995e+01 2.255000312857191158e+00 1.141980809933352248e+01 3.184412716776560046e+02
1.168183327517625969e+01 2.265250827491986474e+00 1.048976613989553464e+01 3.374504760103793615e+02
1.162960511910738504e+01 2.273878588164258474e+00 9.655796302430289302e+00 3.592013781981909801e+02
1.157438639291141769e+01 2.280637581314489015e+00 8.916950042226938322e+00 3.826653837979047807e+02
1.151578695662432850e+01 2.285578570837338397e+00 8.256736001553104387e+00 4.068404005387898792e+02
1.145401045882988278e+01 2.288683340379272568e+00 7.667586840129728465e+00 4.348411273563063446e+02
1.138906020304947475e+01 2.289859670084874121e+00 7.144738152538220533e+00 4.642309744961737010e+02
