# Radius[km]  Mass[Solar Mass] Lambda Central_pressure[MeV fm-3]
1.897495773214897596e+01 1.651854585141343257e-01 1.424850330195001513e+07 2.204696092601306390e+00
1.804120502501057288e+01 1.740852349215790962e-01 1.089053430089647882e+07 2.400893569626943336e+00
1.725782249436938542e+01 1.833782591595802258e-01 8.390050692441945896e+06 2.610227929166103689e+00
1.659334225311065580e+01 1.930688623283140504e-01 6.505496432359456085e+06 2.832347848062172435e+00
1.602463346761230412e+01 2.031625812029592137e-01 5.073221392845158465e+06 3.068998183349611608e+00
1.553457221672088906e+01 2.136583924576107296e-01 3.977002198141722474e+06 3.319919178621391964e+00
1.510931122277672678e+01 2.245684874498120875e-01 3.132153566044750623e+06 3.586418788274903680e+00
1.473784727317471344e+01 2.359022135947814180e-01 2.477801917487552855e+06 3.869029547166954242e+00
1.441215741492087332e+01 2.476673860520709480e-01 1.967697148785417899e+06 4.168334347378754856e+00
1.412515496881367483e+01 2.598741752934279892e-01 1.568304191482745111e+06 4.485739976471977641e+00
1.387146043870500378e+01 2.725261101812890829e-01 1.254142366932860576e+06 4.821055317476137247e+00
1.364643259860281255e+01 2.856511538487584434e-01 1.005922538388899411e+06 5.176592748470396188e+00
1.344639592558675290e+01 2.992509747756006422e-01 8.092482021063391585e+05 5.551627529730456700e+00
1.326839814493754233e+01 3.133354850286585447e-01 6.528516768695951905e+05 5.948651256019995337e+00
1.310954927550249849e+01 3.279231587360740274e-01 5.280075732297069626e+05 6.367191966255081326e+00
1.296786158281162216e+01 3.430213579539209690e-01 4.281148120358368033e+05 6.809545264358256134e+00
1.284127904639590945e+01 3.586502886797643952e-01 3.478724814029407571e+05 7.275567421959029168e+00
1.272825579301598786e+01 3.748183865076369914e-01 2.833037720345705748e+05 7.767522277273069875e+00
1.262750695687288705e+01 3.915327567968739375e-01 2.312148952075476991e+05 8.285303103047235496e+00
1.253770340481301915e+01 4.088149531897779521e-01 1.890797613268349378e+05 8.831505757752408314e+00
1.245786062643478687e+01 4.266681361574344855e-01 1.549182066801841720e+05 9.405651642606811080e+00
1.238702637029140874e+01 4.451166538904009484e-01 1.271693252577773383e+05 1.001116103513700573e+01
1.232437288469805736e+01 4.641629309541795978e-01 1.045662392756491317e+05 1.064701554550001283e+01
1.226921240437257943e+01 4.838138236203170517e-01 8.613456659235390543e+04 1.131696984935149786e+01
1.222090718565265988e+01 5.040831533797006658e-01 7.107631300999221276e+04 1.202053689446659668e+01
1.217887031785225993e+01 5.250058709168700100e-01 5.873317610090790549e+04 1.284541584254729152e+01
1.214270868269974635e+01 5.466303508130634370e-01 4.859583460563080007e+04 1.371218602384915108e+01
1.211195338607853600e+01 5.689110346933682338e-01 4.026783867974320310e+04 1.460600930366554273e+01
1.208619670559915349e+01 5.918502325846498602e-01 3.342265954259378486e+04 1.552773004669087875e+01
1.206514584340160567e+01 6.153994254813547338e-01 2.779875672561772808e+04 1.647821897141175640e+01
1.204816656338254610e+01 6.395434055017358288e-01 2.316673965137317646e+04 1.745837397264535440e+01
1.203479076914280732e+01 6.642632271834304492e-01 1.934439652043698516e+04 1.846912096975042061e+01
1.202475017751821440e+01 6.895284386308533353e-01 1.618734732512443588e+04 1.951141478131200913e+01
1.201748440261908435e+01 7.153176837657699849e-01 1.357277260532763466e+04 2.058624002712635814e+01
1.201271812979942766e+01 7.416183660333448557e-01 1.140437528284837026e+04 2.169461205833802708e+01
1.201001026249348946e+01 7.683889293091854533e-01 9.600890200105279291e+03 2.283757791660785941e+01
1.200914095742476739e+01 7.956267251833245568e-01 8.098860899260740553e+03 2.401621732321792990e+01
1.200974533556019352e+01 8.233001862886767386e-01 6.844623878657011119e+03 2.523164369904774773e+01
1.201154307603926341e+01 8.513926376650241545e-01 5.795893774039809614e+03 2.648500521638544214e+01
1.201429156330631365e+01 8.798757907496093100e-01 4.916311065031222824e+03 2.777748588356739390e+01
1.201774664739049570e+01 9.087435785230257856e-01 4.177597257805661684e+03 2.942623456421021899e+01
1.202184679472573947e+01 9.379976916970945711e-01 3.555685489330436212e+03 3.123223287998368747e+01
1.202639151392023464e+01 9.676007190219894083e-01 3.031182890295949164e+03 3.309459890591575260e+01
1.203128449016736035e+01 9.975405169558281271e-01 2.588174771015675560e+03 3.501509195635389204e+01
1.203634047055672518e+01 1.027776912158425260e+00 2.213559349647154704e+03 3.699552625628444957e+01
1.204138228780433550e+01 1.058279822807760340e+00 1.896252859444765136e+03 3.903777265516972506e+01
1.204629862983335364e+01 1.089023845349699426e+00 1.627009259220895729e+03 4.114376039427624221e+01
1.205092103305214835e+01 1.119981793305745432e+00 1.398100357588367842e+03 4.331547892916408671e+01
1.205507167030470050e+01 1.151127500050029839e+00 1.203173032494476274e+03 4.555497980905823141e+01
1.205862689483053529e+01 1.182433384958471612e+00 1.036885367716945893e+03 4.786437861487800660e+01
1.206153043883120013e+01 1.213867590113725026e+00 8.948626270272123975e+02 5.024585695775498806e+01
1.206355605962881405e+01 1.245405482726033020e+00 7.733113290274866358e+02 5.277019836084416937e+01
1.206469961496312315e+01 1.276974221320616110e+00 6.692508256980478336e+02 5.598757254402611494e+01
1.206493248872080493e+01 1.308545882177039710e+00 5.800642093901573162e+02 5.930536543405030869e+01
1.206406950341491680e+01 1.340063169139885213e+00 5.035400433747147986e+02 6.272671123791594994e+01
1.206205971869640337e+01 1.371507643031524726e+00 4.377714568742626398e+02 6.625484198556598869e+01
1.205890826620765743e+01 1.402863878461745983e+00 3.811025090752358437e+02 6.989309058307676992e+01
1.205443482873793037e+01 1.434098094593180273e+00 3.322014007507635824e+02 7.364489396114197461e+01
1.204861363692199028e+01 1.465170239753645021e+00 2.899552221380009200e+02 7.751379632182515422e+01
1.204138063306996997e+01 1.496069012486827443e+00 2.533792628342818034e+02 8.150345248664761755e+01
1.203267889623508857e+01 1.526765635288883649e+00 2.216959904210483217e+02 8.561763134917519835e+01
1.202244386609363147e+01 1.557193349718525521e+00 1.942043828451707839e+02 9.073519436695492857e+01
1.201062060008597854e+01 1.587263799200061776e+00 1.703747146936940737e+02 9.616653197741622705e+01
1.199720992455613811e+01 1.616934973879040172e+00 1.497007043421458263e+02 1.017673891613599579e+02
1.198213808098968514e+01 1.646195884800808029e+00 1.317137261030117941e+02 1.075430568595919851e+02
1.196538607949383426e+01 1.675020788708170727e+00 1.160337873257259815e+02 1.134989911505127793e+02
1.194689905943626584e+01 1.703398942360233370e+00 1.023463114719353939e+02 1.196408184042908118e+02
1.192663061634248400e+01 1.731318510045314119e+00 9.036878458540009262e+01 1.259743405979041313e+02
1.190457661653871568e+01 1.758728799676142041e+00 7.988812418167547946e+01 1.328956798832080040e+02
1.188075285670724845e+01 1.785562359927415965e+00 7.071979393882850218e+01 1.411171683142129325e+02
1.185509780829352344e+01 1.811717999111712496e+00 6.269613012941043451e+01 1.495952607923554183e+02
1.182769101969582515e+01 1.837216620780913523e+00 5.565983971353727355e+01 1.583379662855443257e+02
1.179839254020759398e+01 1.862034406973451128e+00 4.947749826358772651e+01 1.673535437326756892e+02
1.176723560143061853e+01 1.886165572398503132e+00 4.403410869833248853e+01 1.766505098455735947e+02
1.173416031127132086e+01 1.909615191659905120e+00 3.923089774310474098e+01 1.862376471544405376e+02
1.169926131275324899e+01 1.932295088228743074e+00 3.499670408276558220e+01 1.979025028313965322e+02
1.166253302304032857e+01 1.954074210732808403e+00 3.127212352550240126e+01 2.101793264078336847e+02
1.162396607618128819e+01 1.974993485402325000e+00 2.798540325155836328e+01 2.228393266611154786e+02
1.158345279925893934e+01 1.995016099149200528e+00 2.507890009441889489e+01 2.358944630663260114e+02
1.154100839675701629e+01 2.014162580499053945e+00 2.250204103023919799e+01 2.493570683703401585e+02
1.149666467873906761e+01 2.032409974241788042e+00 2.021629985105409943e+01 2.645672236285004146e+02
1.145053428876100376e+01 2.049587047816783691e+00 1.819605490076788712e+01 2.815764754977878965e+02
1.140249575055387687e+01 2.065642730429408491e+00 1.640933937139110199e+01 2.991166096890619883e+02
1.135247531436454338e+01 2.080624402875345780e+00 1.482265004193160962e+01 3.172041957752807093e+02
1.130040086232433616e+01 2.094497516151235583e+00 1.340965675093025666e+01 3.362233783493993542e+02
1.124651349328391881e+01 2.107242014135020991e+00 1.215209326816562374e+01 3.587564709332676216e+02
1.119069780041697548e+01 2.118684374675347204e+00 1.103818222972258489e+01 3.819928525626743863e+02
1.113279074556385773e+01 2.128836143385088420e+00 1.004733946424645552e+01 4.059544738633372276e+02
1.107282783405350379e+01 2.137757802937352736e+00 9.161306277089339645e+00 4.327117903020387644e+02
1.101100004925253018e+01 2.145292010034067332e+00 8.374323103440593385e+00 4.621815622187195345e+02
1.094713145345743754e+01 2.151456817108271746e+00 7.671981360362537750e+00 4.925711265556538478e+02
1.088116643285073515e+01 2.156280658930956662e+00 7.043235759574159260e+00 5.262215462483418378e+02
1.081332387665569250e+01 2.159670023997762200e+00 6.483030158309378344e+00 5.631958294735630943e+02
1.074345121041540452e+01 2.161630622240251487e+00 5.982277140710471564e+00 6.013241313166083728e+02
1.067163847466984805e+01 2.162182248443490717e+00 5.533471840579162304e+00 6.454521416167468715e+02
