# Radius[km]  Mass[Solar Mass] Lambda Central_pressure[MeV fm-3]
1.951715965711717971e+01 1.522003536529156209e-01 1.751246918086777255e+07 2.368099494976368735e+00
1.862822888489846562e+01 1.582427704677750735e-01 1.410309583742566779e+07 2.536579792003482048e+00
1.785269442463182443e+01 1.645878068786108539e-01 1.140179583466387913e+07 2.713095240952149823e+00
1.717246841393960466e+01 1.712401321107304142e-01 9.248197429041193798e+06 2.897911002267961944e+00
1.657318661291413520e+01 1.782032280247755895e-01 7.522551903266508132e+06 3.091072757501854174e+00
1.604344692716924214e+01 1.854858517030896492e-01 6.139077818368196487e+06 3.292754696594177410e+00
1.557342665387575487e+01 1.930925289703868397e-01 5.021305565254344605e+06 3.503528562890617870e+00
1.515591265230705886e+01 2.010165763622993040e-01 4.118650050440502819e+06 3.723389362814581105e+00
1.478322422321783769e+01 2.092728482977467275e-01 3.386866932928410824e+06 3.952468550251736268e+00
1.445028342331545090e+01 2.178684021540229221e-01 2.790725138356308453e+06 4.191563287396792070e+00
1.415231992534640426e+01 2.267952482360587330e-01 2.305199666238029487e+06 4.440299925936987968e+00
1.388499540077196315e+01 2.360681263756269910e-01 1.908275373741934076e+06 4.699601757137052083e+00
1.364523464474309122e+01 2.456822270586098977e-01 1.583388669243114768e+06 4.969215818360741110e+00
1.342968295349208674e+01 2.556462275980663224e-01 1.316605832592241699e+06 5.249990613273588735e+00
1.323512478567698203e+01 2.660178749267703702e-01 1.096134484765275847e+06 5.578369190628995611e+00
1.305822227699972160e+01 2.769286267113225120e-01 9.121272793681498151e+05 5.928675136343727559e+00
1.289865668628033646e+01 2.883793825101610420e-01 7.591833183273009490e+05 6.287384711751863975e+00
1.275556530836350611e+01 3.003532839559419076e-01 6.323719677086469019e+05 6.654699514893325230e+00
1.262784171737709116e+01 3.128490836384872908e-01 5.275036026621400379e+05 7.030825980024157928e+00
1.251455080589657776e+01 3.258413610974974506e-01 4.404620572369454894e+05 7.415975493634526572e+00
1.241453624882788276e+01 3.393378229003469193e-01 3.685577589045710047e+05 7.810364513249768770e+00
1.232662743197068522e+01 3.533177515541283120e-01 3.089661111219148734e+05 8.214214689081563492e+00
1.225000823168369735e+01 3.677807809555340146e-01 2.595589544121004292e+05 8.627752988597313433e+00
1.218357845516959692e+01 3.827163872731862981e-01 2.185157647452701640e+05 9.051211824077933343e+00
1.212642158831454609e+01 3.981153177881628924e-01 1.843737525448001979e+05 9.484829183235687466e+00
1.207782022304036751e+01 4.139724103450431736e-01 1.559214978689031559e+05 9.928848762965397867e+00
1.203682385520682807e+01 4.302817082225322554e-01 1.321364133274754859e+05 1.038352010630436340e+01
1.200286077208135183e+01 4.470304467313158114e-01 1.122412478032118233e+05 1.084909874267780872e+01
1.197532060767646733e+01 4.642206135818983670e-01 9.554544932304706890e+04 1.132584633150867326e+01
1.195354313336243557e+01 4.818450205979207257e-01 8.150784553095394222e+04 1.181403080927268689e+01
1.193688947870508343e+01 4.998880452508673300e-01 6.967731926692948036e+04 1.231392654008103804e+01
1.192511567171501596e+01 5.183527668283137713e-01 5.969276736665089993e+04 1.282581446987549079e+01
1.191750941446632872e+01 5.372328525389761245e-01 5.123667857858211937e+04 1.334998228432261946e+01
1.191386754394424763e+01 5.565189306304064720e-01 4.406784668606936611e+04 1.388672457049566589e+01
1.191369142772088452e+01 5.762021966728787525e-01 3.797259400084910885e+04 1.443634298243527958e+01
1.191658143875453568e+01 5.962823937924162099e-01 3.277862108922519838e+04 1.499914641068167853e+01
1.192234810556906588e+01 6.167500288171942069e-01 2.834471427701252105e+04 1.557545115587408269e+01
1.193066030776752662e+01 6.375983921008785416e-01 2.455318775192312751e+04 1.616558110651446611e+01
1.194130636144199542e+01 6.588207724075467731e-01 2.130571097768649634e+04 1.676986792099582146e+01
1.195403711327347018e+01 6.804098873599884190e-01 1.851701868554293833e+04 1.738865121399727443e+01
1.196837196613959087e+01 7.023661451278621071e-01 1.611550996011126699e+04 1.802227874735051572e+01
1.198440721530210773e+01 7.246721709011687551e-01 1.404723598109201521e+04 1.867110662548517652e+01
1.200185029959445870e+01 7.473244590731170645e-01 1.226190279489297245e+04 1.933549949556276815e+01
1.202054122296222083e+01 7.703141275261653487e-01 1.071923379958345504e+04 2.001583075241159548e+01
1.204023780645565900e+01 7.936395979012955681e-01 9.381671292591719975e+03 2.071248274837819636e+01
1.206086245592089234e+01 8.172867393759365440e-01 8.221774238094078100e+03 2.142584700821268839e+01
1.208229173337164042e+01 8.412453087508037219e-01 7.214337621617347395e+03 2.215632444910931653e+01
1.210432509157940650e+01 8.655146232111627924e-01 6.337580089558228792e+03 2.296375503680053853e+01
1.212690715514409057e+01 8.901396952052552658e-01 5.571932526239677827e+03 2.403878182398001329e+01
1.215016299722855742e+01 9.151179843099956912e-01 4.903485697522173723e+03 2.513959785950217096e+01
1.217391788834992816e+01 9.404420436090416002e-01 4.319195659401154444e+03 2.626682181197880084e+01
1.219820447286375753e+01 9.661060356600762455e-01 3.808024297279556777e+03 2.742108719151094576e+01
1.222282956591088698e+01 9.920818057658267186e-01 3.360172921133596901e+03 2.860304270572724405e+01
1.224776224881531128e+01 1.018350756844110361e+00 2.968407642852968820e+03 2.981335262436365596e+01
1.227287687847102582e+01 1.044921605176583723e+00 2.624303454871382201e+03 3.105269715258891239e+01
1.229815009778283397e+01 1.071760356802419878e+00 2.322582193250748787e+03 3.232177281328610974e+01
1.232346640598904131e+01 1.098855089643399952e+00 2.057341699397387856e+03 3.362129283850489969e+01
1.234876365645165208e+01 1.126188400625212083e+00 1.824356164917872093e+03 3.495198757030430414e+01
1.237397409589062391e+01 1.153763242602181549e+00 1.619164787845706314e+03 3.631460487121169933e+01
1.239902008116011167e+01 1.181551397278862270e+00 1.438315071424955022e+03 3.770991054452822056e+01
1.242382936758411383e+01 1.209537041592251727e+00 1.278880888694385703e+03 3.913868876471727987e+01
1.244831027598049999e+01 1.237711021708806980e+00 1.138091239951214675e+03 4.060174251811769608e+01
1.247244969822344984e+01 1.266054746270665055e+00 1.013702757493483659e+03 4.209989405422925302e+01
1.249616714407867235e+01 1.294560215345651466e+00 9.036801954386161242e+02 4.363398534782456295e+01
1.251941592263031211e+01 1.323205587415636764e+00 8.063724489754785054e+02 4.520487857214630623e+01
1.254211959114071995e+01 1.351983488679410428e+00 7.199692266066080037e+02 4.681345658345662031e+01
1.256424273258847712e+01 1.380869933647481229e+00 6.434039107692433390e+02 4.846062341721020772e+01
1.258574128027004768e+01 1.409859635638870401e+00 5.754110221525797897e+02 5.014730479613054115e+01
1.260655054209475701e+01 1.438932056229806244e+00 5.150290800161462812e+02 5.187444865047444154e+01
1.262662779956334091e+01 1.468071354827559682e+00 4.613189546370193170e+02 5.364302565077750984e+01
1.264593495707394233e+01 1.497274615654208496e+00 4.134837914047172944e+02 5.545402975337967888e+01
1.266436075880706902e+01 1.526435457428770182e+00 3.709887165543829610e+02 5.773073653260271954e+01
1.268155071563185032e+01 1.555292306392908275e+00 3.334148719458937080e+02 6.027060161918578274e+01
1.269737895393885552e+01 1.583820138718863513e+00 3.001422792665636621e+02 6.287139654701181968e+01
1.271175470216138770e+01 1.612013696653963546e+00 2.705840963704352475e+02 6.553458298645594482e+01
1.272464423405591738e+01 1.639865207727155605e+00 2.442809905443072012e+02 6.826165767248959071e+01
1.273604672206656474e+01 1.667385823569027314e+00 2.208031787178855154e+02 7.105415324585911208e+01
1.274586243840929889e+01 1.694549177161573494e+00 1.998223397571740634e+02 7.391363911444383916e+01
1.275412344067898829e+01 1.721361695378722967e+00 1.810345630699004289e+02 7.684172233527760909e+01
1.276079330991057503e+01 1.747833243540675818e+00 1.641669748755808200e+02 7.984004851772931488e+01
1.276580898085139104e+01 1.773953317719514811e+00 1.490124184461250252e+02 8.291030274835036096e+01
1.276925109089192034e+01 1.799722631047835586e+00 1.353709156241878020e+02 8.605421053790863084e+01
1.277105005194600018e+01 1.825128004348083532e+00 1.230792745353709279e+02 8.927353879114116353e+01
1.277119839641430055e+01 1.850171670623301567e+00 1.119832250184603026e+02 9.257009679977082328e+01
1.276962928781439821e+01 1.874673549874388723e+00 1.020218023811043082e+02 9.669332117533537030e+01
1.276595888409323543e+01 1.898280561540050204e+00 9.314558931506098816e+01 1.010773955847612768e+02
1.276001289952195350e+01 1.920979322964902591e+00 8.521280996159690346e+01 1.055666413118192537e+02
1.275172104733553624e+01 1.942781008825521072e+00 7.809612756111495457e+01 1.101635813533883237e+02
1.274098445350626641e+01 1.963731990020588514e+00 7.167893793598172181e+01 1.148707992315305972e+02
1.272786186552422905e+01 1.983822151206359852e+00 6.588566572409089872e+01 1.196909404454541033e+02
1.271231191759760293e+01 2.003085485482884565e+00 6.063398370698111250e+01 1.246267139583073487e+02
1.269436867080133347e+01 2.021533941998165052e+00 5.586773654540100154e+01 1.300943966829365479e+02
1.267393253978306689e+01 2.038810998434155142e+00 5.159209666488777657e+01 1.363870960548213702e+02
1.265077646829208291e+01 2.054830428343913162e+00 4.775533169587333759e+01 1.428307535133164379e+02
1.262475532956092650e+01 2.069623354881144017e+00 4.429062992662287002e+01 1.494289904524476924e+02
1.259581631314936168e+01 2.083214407639753407e+00 4.115305515911440892e+01 1.561855151413135729e+02
1.256400580559456337e+01 2.095640925118807729e+00 3.830141075948377960e+01 1.636410432092865790e+02
1.252938328092987952e+01 2.106589331644421303e+00 3.574327377578523368e+01 1.719987395532755556e+02
1.249167183874867426e+01 2.115992030855691652e+00 3.344747466675227798e+01 1.805569320236478461e+02
1.245069333257995403e+01 2.123884202825647272e+00 3.137544919338694882e+01 1.893204304023144857e+02
1.240670615830550716e+01 2.130173638646245315e+00 2.951343235266458365e+01 1.996255835788356592e+02
1.235950180498902995e+01 2.134585874220777946e+00 2.786413372457793969e+01 2.102167350878814318e+02
1.230899221297544344e+01 2.137187155328007737e+00 2.639293204689880312e+01 2.217768541709196768e+02
1.225548825616753845e+01 2.137677289413293380e+00 2.511391248613516680e+01 2.343426571173129389e+02
