# Radius[km]  Mass[Solar Mass] Lambda Central_pressure[MeV fm-3]
1.910110168872880365e+01 1.572514484876109675e-01 1.566190376380127482e+07 2.313844255187936128e+00
1.815701588921962184e+01 1.650116203389257741e-01 1.218059892280498892e+07 2.495296907768379757e+00
1.735691114013700087e+01 1.731717059620308252e-01 9.529748704617494717e+06 2.686084128794917092e+00
1.667430519746944739e+01 1.817254637546459606e-01 7.499864142172192223e+06 2.886384253518742504e+00
1.608733364439811098e+01 1.906776261730112054e-01 5.932037099861559458e+06 3.097446193329693287e+00
1.558056733731079824e+01 2.000228011951488694e-01 4.714689459493910894e+06 3.318844640998282358e+00
1.514034804757307029e+01 2.097637522283086198e-01 3.762797155682148412e+06 3.550965709061988829e+00
1.475634800425322801e+01 2.199017136980598308e-01 3.016297302960420493e+06 3.795134532161208885e+00
1.442016677833952443e+01 2.304412847000172071e-01 2.426963830844967160e+06 4.050982971118841647e+00
1.412499795473396347e+01 2.413752694419724065e-01 1.960150323942934163e+06 4.318929266834005354e+00
1.386488813157616562e+01 2.527149055007112399e-01 1.588718919399586041e+06 4.600256297697057128e+00
1.363525939275930732e+01 2.644610244458028836e-01 1.291831079742078902e+06 4.894928059800198739e+00
1.343216028197922363e+01 2.766126035327127752e-01 1.053550366499221418e+06 5.203257879816498566e+00
1.325214344059094351e+01 2.891789106512606122e-01 8.621296756183248945e+05 5.526406821643134570e+00
1.309246329189856795e+01 3.021584506651019408e-01 7.072916520726068411e+05 5.864872061521050561e+00
1.295076940360510598e+01 3.155553988505146457e-01 5.820044220921526430e+05 6.218762826833184931e+00
1.282497884588553028e+01 3.293765304358749479e-01 4.801538972279212321e+05 6.589078127599710122e+00
1.271326290301471751e+01 3.436205119097073268e-01 3.970922369789164513e+05 6.976975587281198266e+00
1.261411593012910970e+01 3.582930482828166063e-01 3.292305066300933249e+05 7.382298968556718854e+00
1.252619728773871621e+01 3.734018719725155089e-01 2.735768542171764420e+05 7.805886013299690340e+00
1.244842872992001759e+01 3.889434840259065052e-01 2.278269043136010005e+05 8.249606017734318897e+00
1.237971326713802611e+01 4.049228141488065424e-01 1.901628636360996461e+05 8.713014859988753358e+00
1.231920936001038314e+01 4.213447017932067107e-01 1.590523767046220601e+05 9.196900202735511343e+00
1.226598163999453739e+01 4.382177880491160415e-01 1.332806745521351113e+05 9.703614953776080299e+00
1.221950683391995973e+01 4.555359772227565163e-01 1.119086410215743381e+05 1.023264402300741516e+01
1.217907425034889535e+01 4.733206885299297562e-01 9.412673718810894934e+04 1.084286667560637696e+01
1.214414001751761241e+01 4.916159044581348558e-01 7.927962867229823314e+04 1.149404686189537372e+01
1.211441027652493574e+01 5.104013497316728376e-01 6.687761504076281562e+04 1.216310511929630067e+01
1.208938134282752230e+01 5.296684411441398010e-01 5.650805782719545823e+04 1.285053228803037584e+01
1.206866271805173518e+01 5.494074366300494283e-01 4.783430486918542738e+04 1.355683268427611132e+01
1.205192533265713983e+01 5.695895389525176267e-01 4.055965627891215263e+04 1.428252447015000470e+01
1.203862003127167846e+01 5.902177214737059918e-01 3.445296802901988849e+04 1.502814003384512631e+01
1.202853591810134049e+01 6.112650011416406182e-01 2.932185389630896680e+04 1.579422638020623815e+01
1.202124208329670374e+01 6.327296961460776581e-01 2.499807558417743348e+04 1.658134553202813066e+01
1.201641960510877993e+01 6.545991798053560906e-01 2.134920994400802374e+04 1.739007494237160145e+01
1.201384545480293475e+01 6.768534856278569656e-01 1.826536051161601426e+04 1.822100791819952192e+01
1.201311922310214442e+01 6.994809295870400012e-01 1.565369853249666812e+04 1.907475405564369098e+01
1.201410501272554221e+01 7.224764334147870670e-01 1.343638487740316850e+04 1.995193968722198719e+01
1.201653250005874796e+01 7.458241694275826728e-01 1.155220995239866352e+04 2.085320834133371193e+01
1.202010833076668916e+01 7.695066443108319332e-01 9.948756709203074934e+03 2.177922121437047309e+01
1.202473700314500071e+01 7.935194896053858749e-01 8.580426527750219975e+03 2.273065765578863306e+01
1.203015661504949385e+01 8.178448630498673655e-01 7.411337255377577094e+03 2.370821566649946277e+01
1.203611791201901227e+01 8.424665529301254008e-01 6.410255800625610391e+03 2.471261241094256889e+01
1.204265954824616358e+01 8.673861916935211580e-01 5.552144967389428530e+03 2.598128113479988599e+01
1.204957071561523385e+01 8.926105178525863826e-01 4.814756952497217753e+03 2.739138811751736213e+01
1.205687683496342544e+01 9.181192985611884572e-01 4.180813074990397581e+03 2.884020941225366030e+01
1.206434061803551749e+01 9.438883474689755415e-01 3.634879214210563987e+03 3.032880791563538381e+01
1.207192943970312449e+01 9.699091674064783675e-01 3.164252646947777066e+03 3.185827570598399916e+01
1.207951524327797266e+01 9.961646320189334602e-01 2.757924523431213856e+03 3.342973484449557020e+01
1.208701533139507411e+01 1.022627601127068298e+00 2.406833213603843888e+03 3.504433819841691644e+01
1.209431845736400568e+01 1.049292100048886400e+00 2.102861001204505556e+03 3.670327028682185500e+01
1.210132348398505187e+01 1.076134592611924123e+00 1.839566946745723271e+03 3.840774814960823136e+01
1.210790459331030533e+01 1.103136688300502932e+00 1.611010316187766648e+03 4.015902224035308876e+01
1.211400338054517434e+01 1.130280201208107238e+00 1.412445329930154685e+03 4.195837734368109295e+01
1.211954223969394739e+01 1.157556504207735371e+00 1.239675045952105165e+03 4.380713351781906795e+01
1.212442963353132441e+01 1.184941375625633286e+00 1.089137893172925033e+03 4.570664706302857638e+01
1.212860747333682632e+01 1.212418648791474984e+00 9.578315613409176876e+02 4.770150066693795310e+01
1.213194124361393911e+01 1.239940554380187354e+00 8.432744370731393246e+02 5.026706723218050854e+01
1.213453379807195276e+01 1.267471088257275280e+00 7.433378192530525439e+02 5.290307110872581120e+01
1.213619391304014528e+01 1.294994771909460329e+00 6.559827751843803298e+02 5.561144614420453536e+01
1.213695147502082783e+01 1.322486327426057207e+00 5.795191263249087115e+02 5.839417927979386036e+01
1.213673512415214084e+01 1.349937233017183713e+00 5.125309398594143886e+02 6.125331200789406694e+01
1.213546724133007793e+01 1.377331388240506937e+00 4.537151363418885808e+02 6.419094186982559336e+01
1.213315275050510067e+01 1.404630351777347519e+00 4.020862109922209697e+02 6.720922399464538444e+01
1.212971133024457160e+01 1.431841976965634533e+00 3.566669893756206307e+02 7.031037268021074738e+01
1.212508659144679335e+01 1.458939265855991874e+00 3.166602199374435713e+02 7.349666301765161336e+01
1.211929435422930190e+01 1.485904740872267427e+00 2.813913729275144533e+02 7.677043256044224506e+01
1.211219578260831220e+01 1.512724358784374390e+00 2.502465259745289643e+02 8.046531297517861958e+01
1.210390378574649617e+01 1.539305648284756467e+00 2.228101743941846848e+02 8.477356702815120570e+01
1.209429120681230962e+01 1.565597897002797723e+00 1.986092654407960083e+02 8.920010366089070430e+01
1.208335513640421333e+01 1.591625154267829023e+00 1.772222823457017853e+02 9.374817030692915409e+01
1.207106963687959755e+01 1.617343234321001910e+00 1.583005160996303005e+02 9.842110355768286922e+01
1.205739245372351043e+01 1.642755993774995371e+00 1.415342293642312370e+02 1.032223316102708424e+02
1.204235846251245512e+01 1.667825395678414591e+00 1.266709950706471517e+02 1.081553767825380845e+02
1.202587018304822664e+01 1.692591159485014929e+00 1.134505979560369013e+02 1.132238580971283994e+02
1.200793848663421670e+01 1.717003808212892002e+00 1.016952266305942629e+02 1.184314939365026902e+02
1.198855710263932650e+01 1.741038597308595115e+00 9.122945582506139317e+01 1.246201229322527695e+02
1.196775625877541138e+01 1.764590779954384514e+00 8.194177857534350551e+01 1.313463245740459513e+02
1.194549541099091350e+01 1.787635690449093095e+00 7.368717146138598650e+01 1.382571932462512905e+02
1.192175053413689234e+01 1.810197387142474357e+00 6.632601439279517308e+01 1.453577989592458266e+02
1.189651695695372879e+01 1.832253887058306052e+00 5.975677931002543630e+01 1.526533509199114178e+02
1.186977600871612104e+01 1.853806745515802046e+00 5.388859941992051006e+01 1.601492013532577516e+02
1.184153353890074989e+01 1.874849178580259457e+00 4.863860057643067591e+01 1.678508494289672228e+02
1.181177086698543377e+01 1.895367873863180952e+00 4.392992299691962188e+01 1.764294302486057404e+02
1.178053733889496257e+01 1.915263738191909093e+00 3.972480463782929405e+01 1.862373771927681787e+02
1.174785282125034946e+01 1.934495615556456549e+00 3.596581404585576536e+01 1.963146001017433662e+02
1.171374053917799785e+01 1.953118603445146206e+00 3.259228514717566583e+01 2.066684919136903034e+02
1.167810722428615833e+01 1.971110480279282484e+00 2.956402807085349238e+01 2.173066485389669253e+02
1.164096858365230780e+01 1.988454858709018946e+00 2.684214422879581008e+01 2.282368744327059460e+02
1.160230137175509846e+01 2.005169264509582661e+00 2.439026244941802091e+01 2.397900777073245706e+02
1.156226983472865477e+01 2.021181725542437579e+00 2.218664743424915287e+01 2.535565702319328238e+02
1.152085712817982710e+01 2.036437016735568317e+00 2.020711429985652785e+01 2.677010200984550465e+02
1.147806046365035293e+01 2.050996083365538958e+00 1.842217832117525944e+01 2.822338040787562363e+02
1.143380639739896765e+01 2.064819707588102737e+00 1.681160379985451314e+01 2.971655838376839824e+02
1.138814401579129054e+01 2.077926463679504732e+00 1.535655922637961979e+01 3.125073137547685747e+02
1.134113675987356196e+01 2.090280977584515032e+00 1.404335672415024128e+01 3.301805250288280149e+02
1.129288527728379066e+01 2.101680376831343455e+00 1.286346875441073578e+01 3.492424583182499305e+02
1.124322345465777140e+01 2.112129434619299140e+00 1.180372582975855167e+01 3.688277346178786615e+02
1.119205311249095836e+01 2.121593486348833490e+00 1.084880230281676639e+01 3.889507222450395147e+02
1.113935888150372477e+01 2.130061452024839763e+00 9.987126812527197472e+00 4.112373648932030505e+02
1.108549461980710760e+01 2.137154971891470190e+00 9.224517438575212225e+00 4.356860024913799521e+02
1.102988010313729639e+01 2.142728861038353028e+00 8.548397079009621535e+00 4.608058743973157334e+02
1.097294385103400671e+01 2.146438932038364111e+00 7.960965565560695900e+00 4.894749010848171906e+02
1.091493557939171843e+01 2.147439583714485956e+00 7.475704248336665358e+00 5.208352736794964812e+02
