# Radius[km]  Mass[Solar Mass] Lambda Central_pressure[MeV fm-3]
1.911500977572214310e+01 1.617572519379562868e-01 1.505548949046963081e+07 2.243903437008585744e+00
1.817202058687138688e+01 1.699581818586790583e-01 1.161356763626210950e+07 2.440934572300049066e+00
1.737644320102835138e+01 1.784942187619612819e-01 9.025602899527415633e+06 2.651240724932993675e+00
1.669781608791797112e+01 1.873685294809824264e-01 7.059961960239834152e+06 2.874900004860802216e+00
1.611468804322198523e+01 1.965702484510742365e-01 5.555093258270483464e+06 3.112551785393420811e+00
1.560897811121638235e+01 2.061016562861175683e-01 4.393441257494011894e+06 3.365785450653413058e+00
1.516783516217935990e+01 2.159642158918524402e-01 3.491425018105532508e+06 3.634113608118399341e+00
1.478068769589276243e+01 2.261503218664882298e-01 2.787317309117649216e+06 3.920174169400230113e+00
1.443889134170910715e+01 2.366644869918866634e-01 2.234138639423890971e+06 4.222954182472156148e+00
1.413569317072271048e+01 2.475052126094503535e-01 1.797864634909250308e+06 4.545352841008972966e+00
1.386566328587979235e+01 2.586705825044981477e-01 1.452536580550397746e+06 4.886553601246916401e+00
1.362374816220958174e+01 2.701704798231933657e-01 1.176490110870771343e+06 5.249350005663838026e+00
1.340673253101108742e+01 2.819930161624550902e-01 9.566082197920237668e+05 5.633555523004906362e+00
1.321102798274383261e+01 2.941494705470316662e-01 7.800832937407548307e+05 6.040974795871228764e+00
1.303405557890700806e+01 3.066386425446078756e-01 6.378436574385637650e+05 6.473132280141105532e+00
1.287359538304489881e+01 3.194608827299694198e-01 5.230609348301101127e+05 6.930477404536302011e+00
1.272752683715037847e+01 3.326249253692776797e-01 4.299772995918156812e+05 7.415363157859620635e+00
1.259436676931476384e+01 3.461287513424322615e-01 3.543275773948804126e+05 7.929020981022650183e+00
1.247259406432210760e+01 3.599817643761371033e-01 2.926288123739177245e+05 8.472417103447158482e+00
1.236101228839477706e+01 3.741824703030611210e-01 2.422118481342194136e+05 9.047296882171803389e+00
1.225846947674234499e+01 3.887440796725135095e-01 2.008530938544072269e+05 9.656455594723043490e+00
1.216415020612989650e+01 4.036666219482606954e-01 1.668882738882992708e+05 1.030045705091531083e+01
1.207721130716678637e+01 4.189623371057032419e-01 1.389037554826362466e+05 1.098112569778889913e+01
1.199689545553738412e+01 4.346381982026009116e-01 1.158088424594630633e+05 1.170034110508064984e+01
1.192249158274949572e+01 4.507546315254971625e-01 9.664927880221598025e+04 1.250658205691462399e+01
1.185317265650325247e+01 4.676505047507126256e-01 8.050288114293038961e+04 1.339171879646983498e+01
1.178951154188585093e+01 4.853648772425580016e-01 6.695858024454124097e+04 1.430364541156623126e+01
1.173175276682002988e+01 5.038761757147993681e-01 5.566146955899366003e+04 1.524317273447348953e+01
1.167986757805680931e+01 5.231552670433239349e-01 4.626989166149412631e+04 1.621113613841028211e+01
1.163372085128790623e+01 5.431747896184330182e-01 3.848452682402063510e+04 1.720839628030979540e+01
1.159304436071227862e+01 5.639032204380929336e-01 3.203786769204430675e+04 1.823583986606574214e+01
1.155750331289019073e+01 5.853219354189185264e-01 2.670427154678863735e+04 1.929438043894013788e+01
1.152672977705425161e+01 6.073912111579187201e-01 2.229600246976344715e+04 2.038495919183273131e+01
1.150039506933601707e+01 6.300939415771945606e-01 1.863753334124678076e+04 2.150854580413531281e+01
1.147798948863699131e+01 6.534034768306832275e-01 1.560863777814958303e+04 2.266613930391434906e+01
1.145927598609076270e+01 6.772885867189698539e-01 1.309697146131892259e+04 2.385876895618879701e+01
1.144381545210819517e+01 7.017295697328236326e-01 1.100958191674156660e+04 2.508749517809295781e+01
1.143128781511525638e+01 7.267018070432280652e-01 9.272039489561302616e+03 2.635341048173780365e+01
1.142122715099347552e+01 7.521738969078768378e-01 7.822880296526180246e+03 2.765764044560944512e+01
1.141346841307324489e+01 7.781310070833028503e-01 6.612605999722979504e+03 2.904144034462570900e+01
1.140778083175475643e+01 8.047238574844192138e-01 5.593762468144842387e+03 3.083173135686875099e+01
1.140438373357629054e+01 8.320590816212360963e-01 4.734297305228325058e+03 3.267620797824670120e+01
1.140317260199007521e+01 8.600868522355342716e-01 4.010111369652736812e+03 3.457651021042256900e+01
1.140419740459390141e+01 8.887976280865709233e-01 3.400115991882282742e+03 3.653432769195547536e+01
1.140692022121762328e+01 9.181107077098755731e-01 2.885989737553540181e+03 3.855140120062946352e+01
1.141145218361002556e+01 9.480117050894751873e-01 2.453119951242638308e+03 4.062952420125193953e+01
1.141751796268638053e+01 9.784584706619998684e-01 2.087988855692246489e+03 4.277054444029872826e+01
1.142508601150654535e+01 1.009433135721020003e+00 1.779864973725884056e+03 4.497636558882315683e+01
1.143355419153788510e+01 1.040857674126877797e+00 1.519457814400688676e+03 4.724894893508979266e+01
1.144311706824075969e+01 1.072735023478065042e+00 1.299061548292499083e+03 4.959031512843838385e+01
1.145354717496131691e+01 1.105015827171471399e+00 1.112479560923939971e+03 5.200254597592804373e+01
1.146436475218195561e+01 1.137653993500375993e+00 9.540395036484208049e+02 5.448778629335939172e+01
1.147577175499762880e+01 1.170631918857396148e+00 8.194863056705997906e+02 5.704824581232043101e+01
1.148734340327033365e+01 1.203897951371812658e+00 7.049312334105931086e+02 5.968620114495166007e+01
1.149923047589883929e+01 1.237428391865058375e+00 6.073962410966566949e+02 6.240399780817762121e+01
1.151071402480184958e+01 1.271191186456203548e+00 5.239313223261110579e+02 6.537133997288836440e+01
1.152233379266083624e+01 1.305163354381959406e+00 4.526749767184232951e+02 6.907577228318460527e+01
1.153380859986867790e+01 1.339322914537011577e+00 3.916392657459035718e+02 7.289232431025303072e+01
1.154506035073690384e+01 1.373630783968463831e+00 3.393186597050936371e+02 7.682438951086001566e+01
1.155611474552317297e+01 1.408041224882931930e+00 2.944460048338088995e+02 8.087546404938805722e+01
1.156672056720591080e+01 1.442528993130469672e+00 2.558355484685388319e+02 8.504914990642240014e+01
1.157688944003898968e+01 1.477047444087227435e+00 2.226262826426837478e+02 8.934915808142329752e+01
1.158646832738964427e+01 1.511562394218321392e+00 1.940011471684321123e+02 9.377931189233144949e+01
1.159537320512644953e+01 1.546043532619476135e+00 1.692760122636087488e+02 9.834355037504097652e+01
1.160358248839168738e+01 1.580435054119840643e+00 1.479334505731867182e+02 1.030459317857612263e+02
1.161096115688371277e+01 1.614725039385795258e+00 1.294421588557499376e+02 1.078906372093833852e+02
1.161741719632977521e+01 1.648864108245947424e+00 1.133985577377796687e+02 1.128819742770583474e+02
1.162289350976485558e+01 1.682839707543796193e+00 9.947158204558427030e+01 1.180243809962927770e+02
1.162736010708292334e+01 1.716588021180397439e+00 8.736731564401132744e+01 1.233851439054389232e+02
1.163069279156073321e+01 1.750034055648399534e+00 7.683799847293366270e+01 1.303538076853901373e+02
1.163286692614390105e+01 1.783074546183719855e+00 6.769265209116835535e+01 1.375333876176264596e+02
1.163384426257396242e+01 1.815692360721531617e+00 5.972690522731959817e+01 1.449302673683284013e+02
1.163357583788489080e+01 1.847862087217178484e+00 5.277904981421513497e+01 1.525510238140752222e+02
1.163203258849899413e+01 1.879565526448817137e+00 4.670475982738165044e+01 1.604024328896223324e+02
1.162915009679901424e+01 1.910772367706580210e+00 4.138795343757308842e+01 1.684914756126695465e+02
1.162492926419519179e+01 1.941465387824816258e+00 3.672623496791439379e+01 1.768253442909771138e+02
1.161936644737297364e+01 1.971613710224391136e+00 3.263121150030725204e+01 1.854114489173492757e+02
1.161229348922046256e+01 2.001231064164810558e+00 2.902436744617067177e+01 1.942574237581694661e+02
1.160381390588909234e+01 2.030239053694391060e+00 2.585089738350187361e+01 2.033711341413478806e+02
1.159380364711230804e+01 2.058633098211693380e+00 2.304826215137601508e+01 2.139501416242787570e+02
1.158208162834397825e+01 2.085993429549769740e+00 2.059905860579659986e+01 2.260837396186813351e+02
1.156841075519799666e+01 2.112221238932330269e+00 1.845530414947133835e+01 2.385845775723021518e+02
1.155271237112921057e+01 2.137331401900957051e+00 1.657001860610366606e+01 2.514637705054104515e+02
1.153488237157190355e+01 2.161308408761716038e+00 1.490775465437877756e+01 2.647327698495848836e+02
1.151485735823719381e+01 2.184232200803010393e+00 1.343300954130583236e+01 2.784033736296628945e+02
1.149266143303039378e+01 2.206049492525642197e+00 1.212628615137490229e+01 2.924877369538593257e+02
1.146819419256080685e+01 2.226608031077833783e+00 1.096813551117348950e+01 3.091264367966008990e+02
1.144107353625195245e+01 2.245173909528469292e+00 9.964237465801550897e+00 3.271387917510378429e+02
1.141070474465085915e+01 2.261626206975676290e+00 9.088709513757828873e+00 3.456963152945397724e+02
1.137681494379014602e+01 2.276088287675797073e+00 8.317903456780880944e+00 3.654333802808967562e+02
1.133929419981115316e+01 2.287317369529534350e+00 7.670395138744644292e+00 3.881164170863898448e+02
1.129728482236738252e+01 2.293698285005786097e+00 7.164380921189478002e+00 4.137072474497219332e+02
