# Radius[km]  Mass[Solar Mass] Lambda Central_pressure[MeV fm-3]
1.926474065125232116e+01 1.579441467830736689e-01 1.597715304321040958e+07 2.291153982476301199e+00
1.833813366631074260e+01 1.652394383104135167e-01 1.253018012100880593e+07 2.481070885030188133e+00
1.754691693216637560e+01 1.728316637771446229e-01 9.890078830051897094e+06 2.682555662490547999e+00
1.686576641445309832e+01 1.807141154920695048e-01 7.852179217728428543e+06 2.896191345186201360e+00
1.627489470196678667e+01 1.888857286820334602e-01 6.265020477344063111e+06 3.122586737887476982e+00
1.575870660758840103e+01 1.973461071530359379e-01 5.021577765860518441e+06 3.362376357809926386e+00
1.530506593450109420e+01 2.060955505262342391e-01 4.041986441389049869e+06 3.616228402203414571e+00
1.490425634755316864e+01 2.151353432073358496e-01 3.266097583396344446e+06 3.884939994860592272e+00
1.454813666948479245e+01 2.244699976365599481e-01 2.648405370008823462e+06 4.169137741022892030e+00
1.423061924883893603e+01 2.340983931717199318e-01 2.154826535768806934e+06 4.469558428447506948e+00
1.394604122177870664e+01 2.440298278624382089e-01 1.758531464156489354e+06 4.786964317134018820e+00
1.369016123942595797e+01 2.542676551825805986e-01 1.439068060995933833e+06 5.122143342488771012e+00
1.345938592897464581e+01 2.648180403702727892e-01 1.180963208197464235e+06 5.475909379891555240e+00
1.325067166237335314e+01 2.756860439395842355e-01 9.715974345390684903e+05 5.849102574157311274e+00
1.306125909093521642e+01 2.868841640013710115e-01 8.009941352852748241e+05 6.242589736939219591e+00
1.288883096111915805e+01 2.984406945365623565e-01 6.616442846836273093e+05 6.684964506448347166e+00
1.273025384121831927e+01 3.105394603144195353e-01 5.461862188278059475e+05 7.174416236068831942e+00
1.258524067090347032e+01 3.231918992410935387e-01 4.508583048160890467e+05 7.677637484727950046e+00
1.245334103826151306e+01 3.363852044210906000e-01 3.723694737036145525e+05 8.195015623933615601e+00
1.233381179818694129e+01 3.501039653415742303e-01 3.079094774084962555e+05 8.726948922937149078e+00
1.222587754220832856e+01 3.643294220138729722e-01 2.549636409962594917e+05 9.273846855314419102e+00
1.212869531400270695e+01 3.790452775867941271e-01 2.115039062817353697e+05 9.836130414171956104e+00
1.204126851672753240e+01 3.942318143794944496e-01 1.757701182449342450e+05 1.041423243622053185e+01
1.196281243356531654e+01 4.098802252699462190e-01 1.463871983658710669e+05 1.100859793496588601e+01
1.189258599613438072e+01 4.259742199752460934e-01 1.221771504220699280e+05 1.161968444327274419e+01
1.182961147556320824e+01 4.425045528399465522e-01 1.021869632494460093e+05 1.224796236556623796e+01
1.177339643131518443e+01 4.594547395798528333e-01 8.565248215982322290e+04 1.289391533994155381e+01
1.172313376636031812e+01 4.768047225021776470e-01 7.195904483026794333e+04 1.355804061046059772e+01
1.167831149239836819e+01 4.945608426372509747e-01 6.058026283006890299e+04 1.424084940992240433e+01
1.163820910582734847e+01 5.126965286116867970e-01 5.110617293683739990e+04 1.494286735340178573e+01
1.160240468750412646e+01 5.311991093334620384e-01 4.320742133285137243e+04 1.566463484285928764e+01
1.157043470412835617e+01 5.501809165408961810e-01 3.656341483604195673e+04 1.658205928399886986e+01
1.154221126844456080e+01 5.699282281311824905e-01 3.091851090383461269e+04 1.759955832653871610e+01
1.151781830948282526e+01 5.904346909755572304e-01 2.613351973356798044e+04 1.864568219884248990e+01
1.149744229049034949e+01 6.116841341545418143e-01 2.208928979866593727e+04 1.972123619000114303e+01
1.148088731111095662e+01 6.336433644072936300e-01 1.868021374339749673e+04 2.082704824393098875e+01
1.146805445763957110e+01 6.562825373482636948e-01 1.580933108786306911e+04 2.196396959671153581e+01
1.145883434276004564e+01 6.795982280655641361e-01 1.339447757683368945e+04 2.313287543185293771e+01
1.145284532905305674e+01 7.035510668137371360e-01 1.136088386437341069e+04 2.433466555399813913e+01
1.144989069335796295e+01 7.281192475220861215e-01 9.649160370717067053e+03 2.557026508157778366e+01
1.144974601197359299e+01 7.532695505477556841e-01 8.207101446493781623e+03 2.684062515895122658e+01
1.145199623795985566e+01 7.789996356889076212e-01 6.990406276540859835e+03 2.814672368858201068e+01
1.145660933297802586e+01 8.052725048701665500e-01 5.963375786902418440e+03 2.948956608381120503e+01
1.146327588681730347e+01 8.320664240760514696e-01 5.095781786019381798e+03 3.087018604280820711e+01
1.147173841864676547e+01 8.593660867712025198e-01 4.360762005170473458e+03 3.228964634429468106e+01
1.148182109836045228e+01 8.871354416294756629e-01 3.737893784049159422e+03 3.374903966565435098e+01
1.149327361782805568e+01 9.153642285821518287e-01 3.208949762391762306e+03 3.524948942405816155e+01
1.150578782955866330e+01 9.440183042442283901e-01 2.758882312430137517e+03 3.679215064125258294e+01
1.151938073153428377e+01 9.730808761759949244e-01 2.375867542535776920e+03 3.837821083267638755e+01
1.153375219126139584e+01 1.002530883099138403e+00 2.049013225814759608e+03 4.000889092159070515e+01
1.154879298728918435e+01 1.032342568200851796e+00 1.769557030092320019e+03 4.168544617892590765e+01
1.156435361221208957e+01 1.062495591510263848e+00 1.530472226460655065e+03 4.353644769179412322e+01
1.158028295037594191e+01 1.093035075715955706e+00 1.325103404489868353e+03 4.586645475245459380e+01
1.159673467459954210e+01 1.123954329440325806e+00 1.148631011047680431e+03 4.826201082365141559e+01
1.161347237825024692e+01 1.155235254704100045e+00 9.967106841425737684e+02 5.072495996536827079e+01
1.163057516839734085e+01 1.186833737116069543e+00 8.659901138419515974e+02 5.325719811567510220e+01
1.164789830970987516e+01 1.218722999427557019e+00 7.534139163219177817e+02 5.586067455019038164e+01
1.166529191979697266e+01 1.250870184784748762e+00 6.562699901616367697e+02 5.853739338260153602e+01
1.168265346042149133e+01 1.283253071954671531e+00 5.723410869887658237e+02 6.128941510739910825e+01
1.169987603742540827e+01 1.315832215618285339e+00 4.997851686615068161e+02 6.411885818601173526e+01
1.171698468087026335e+01 1.348583816912213962e+00 4.369864693759346892e+02 6.702790067756319559e+01
1.173363140313323427e+01 1.381474614517869348e+00 3.825141326151213548e+02 7.001878191550683539e+01
1.174998727870039517e+01 1.414484989032071871e+00 3.352630174641491863e+02 7.309380423142783911e+01
1.176584294869877212e+01 1.447571803421192183e+00 2.941952301420995468e+02 7.625533472734066720e+01
1.178114200771393172e+01 1.480715689370591504e+00 2.584631199479008501e+02 7.950580709784536282e+01
1.179580539623031576e+01 1.513885350044230860e+00 2.273197693852253281e+02 8.284772350354619164e+01
1.180973866627265778e+01 1.547055346068501258e+00 2.001551825824646187e+02 8.628365649717393637e+01
1.182286360802898351e+01 1.580197315641512334e+00 1.764281421220636901e+02 8.981625100389489091e+01
1.183516219705617623e+01 1.613263090470405059e+00 1.556867511675981177e+02 9.377552853618563233e+01
1.184634305186678915e+01 1.646030397554911540e+00 1.376223228798725131e+02 9.859592192133160893e+01
1.185625677754009466e+01 1.678380661767050253e+00 1.218927431809936337e+02 1.035519252031714785e+02
1.186484924094489202e+01 1.710315087352004992e+00 1.081466836257445863e+02 1.086473534321818448e+02
1.187199930304020512e+01 1.741813703619582654e+00 9.610765643098623912e+01 1.138861289858890444e+02
1.187765858389680673e+01 1.772850010848218583e+00 8.553739167710800473e+01 1.192722845882516793e+02
1.188180921721923511e+01 1.803432571580389165e+00 7.624523745761671023e+01 1.248099664139852081e+02
1.188440945975128571e+01 1.833526373039413571e+00 6.805132963212068375e+01 1.305034372802201403e+02
1.188533793087565194e+01 1.863143059748444852e+00 6.081122120875379267e+01 1.363570799279490018e+02
1.188471603703946222e+01 1.892250412143063443e+00 5.440902305418602936e+01 1.423754003957883754e+02
1.188239196402968645e+01 1.920871884444053990e+00 4.872772284158720169e+01 1.485630314886545875e+02
1.187837912183156419e+01 1.948907420207726338e+00 4.369529732326534344e+01 1.556751826003052201e+02
1.187249858528339175e+01 1.976052000154856270e+00 3.926882274097590653e+01 1.638533643341041568e+02
1.186449472369660008e+01 2.002234563413113122e+00 3.535936124528470970e+01 1.722616190705509780e+02
1.185432358966795796e+01 2.027450492016625194e+00 3.190243325392214402e+01 1.809064193469735642e+02
1.184193071623283089e+01 2.051710594037256197e+00 2.883278615287185431e+01 1.897944197895979528e+02
1.182728692381284219e+01 2.075017995245845182e+00 2.609915143245498825e+01 1.989324622361701529e+02
1.181037063442707336e+01 2.097428561879833175e+00 2.365623380418957211e+01 2.083275810026923409e+02
1.179121338845511069e+01 2.118898741027746446e+00 2.147184247004815205e+01 2.186516358558073705e+02
1.176971398266351443e+01 2.139185635413304087e+00 1.952940912325260570e+01 2.307058898523859796e+02
1.174572110493408594e+01 2.158196221281085236e+00 1.780264148234719457e+01 2.430992605991112328e+02
1.171918106458284470e+01 2.175971328747219768e+00 1.625953374092185655e+01 2.558412883106043125e+02
1.169000173309610524e+01 2.192517199321890597e+00 1.487697178567498391e+01 2.689417815919306349e+02
1.165820318615178586e+01 2.207871521749732224e+00 1.363273654924953604e+01 2.827675364815646049e+02
1.162388064666254550e+01 2.221888796301794589e+00 1.251934737890167249e+01 2.991916179813596841e+02
1.158687313825588028e+01 2.234451861644319415e+00 1.152359946225199927e+01 3.160777505665170111e+02
1.154712085081613182e+01 2.245598494268135070e+00 1.062928403719848269e+01 3.334389329064281355e+02
1.150447836772383958e+01 2.255373002047108333e+00 9.822208909052697834e+00 3.518012918152542170e+02
1.145922122627204587e+01 2.263630920313639994e+00 9.098704380981184059e+00 3.731672125164332670e+02
1.141119873765583037e+01 2.270355139307026704e+00 8.448483008043293552e+00 3.951342107786229576e+02
1.136028523486234398e+01 2.275561093098962040e+00 7.862453757636687968e+00 4.177727304520389566e+02
1.130666053308208951e+01 2.279197853147892694e+00 7.335522875965003742e+00 4.443991361301150391e+02
1.125019486160947757e+01 2.281182323774214815e+00 6.862557080387630570e+00 4.717746101590148555e+02
1.119100847266509469e+01 2.281598547728135973e+00 6.435824962694367102e+00 5.015537696453384342e+02
