# Radius[km]  Mass[Solar Mass] Lambda Central_pressure[MeV fm-3]
1.932812358863670710e+01 1.593204927860951692e-01 1.593809796675713547e+07 2.265767005778647647e+00
1.834965779964245058e+01 1.670380283893632412e-01 1.231356462823463418e+07 2.477950512545856299e+00
1.751951366442571256e+01 1.750482002537949444e-01 9.579973846612086520e+06 2.705375894253283064e+00
1.680744647336891617e+01 1.833624695688384487e-01 7.498671883618785068e+06 2.948845524859883938e+00
1.619039283997875600e+01 1.919936215879421426e-01 5.897047807294020429e+06 3.209174379801594590e+00
1.565160971119197164e+01 2.009542026588636288e-01 4.658452999892289750e+06 3.487327596293529730e+00
1.517774390546271768e+01 2.102627556547143339e-01 3.692985985413677059e+06 3.784053151184533448e+00
1.475860710908201234e+01 2.199323116604495754e-01 2.937472504616445862e+06 4.100227670935232105e+00
1.438584873110236018e+01 2.299840178311716166e-01 2.342894969124236144e+06 4.436750445325102099e+00
1.405314604200523299e+01 2.404293691600484506e-01 1.873754386159740854e+06 4.794543822540525468e+00
1.375510050549331886e+01 2.512904296735899434e-01 1.502132987408974208e+06 5.174555136302360303e+00
1.348734637237884648e+01 2.625778617853685715e-01 1.206845566976919770e+06 5.577758607871289520e+00
1.324615249416451057e+01 2.743131299135195267e-01 9.716359258618977619e+05 6.005157238556187771e+00
1.302862495569889845e+01 2.865165487757634355e-01 7.836710447190934792e+05 6.457784706919775353e+00
1.283219237934820534e+01 2.991982629545457684e-01 6.334078055638845544e+05 6.937290550879614770e+00
1.265467098020783432e+01 3.123717328983888764e-01 5.127841025559725822e+05 7.444486571611244941e+00
1.249413721519871956e+01 3.260487052622980664e-01 4.159444046405684785e+05 7.980381178744842430e+00
1.234883726612775234e+01 3.402504674745810420e-01 3.378988340108278790e+05 8.546168174142005469e+00
1.221753852714694943e+01 3.549845378282479036e-01 2.749994923382255365e+05 9.143491243620275100e+00
1.209832088771656800e+01 3.703730218301135024e-01 2.238937303628174996e+05 9.847522068918225457e+00
1.199044536438880648e+01 3.865449894853057455e-01 1.822137435845360160e+05 1.057807267227055803e+01
1.189361034364156033e+01 4.034688516841949402e-01 1.483535209156988421e+05 1.133142503810366897e+01
1.180749243098379253e+01 4.211290094999377009e-01 1.209182766149306117e+05 1.210829084931790867e+01
1.173131532354567241e+01 4.394932774910019768e-01 9.871381928530066216e+04 1.290940400168204683e+01
1.166433509264574475e+01 4.585307416961234006e-01 8.074042159922912833e+04 1.373552129713581138e+01
1.160580019168047095e+01 4.782243155098664378e-01 6.618507590588722087e+04 1.458742315873157658e+01
1.155496410112747263e+01 4.985533159789005131e-01 5.437850785601796088e+04 1.546591436789055152e+01
1.151101146173694190e+01 5.194887066653037788e-01 4.478421910969241435e+04 1.637182482467011724e+01
1.147332044020878783e+01 5.410062333746706864e-01 3.697981586659243476e+04 1.730601033176046855e+01
1.144105912579082940e+01 5.630964110954541635e-01 3.060443196180656741e+04 1.826935340295099763e+01
1.141386791930059452e+01 5.857323305537974756e-01 2.539567715676029547e+04 1.926276409683049096e+01
1.139089380195620649e+01 6.088859701525383139e-01 2.112309853040552116e+04 2.028718087650851842e+01
1.137185010764139825e+01 6.325419508546414882e-01 1.761207720624712965e+04 2.134357149617020966e+01
1.135608209513301503e+01 6.566929238162028115e-01 1.471648802010182044e+04 2.248695634428036882e+01
1.134336489299328221e+01 6.814629391477800002e-01 1.231375778271156014e+04 2.394490561181562427e+01
1.133368942709353888e+01 7.069093713038080429e-01 1.031494261782231297e+04 2.544836002677643449e+01
1.132684271186649028e+01 7.329982592714857637e-01 8.651377428008376228e+03 2.699873988442843498e+01
1.132248342068423597e+01 7.597025400944513729e-01 7.266285800618257781e+03 2.859750980993742075e+01
1.132054463321405358e+01 7.869792270648193755e-01 6.113576733413834518e+03 3.024618014198307492e+01
1.132066735407563662e+01 8.148062081158583547e-01 5.152398100879847334e+03 3.194630835955768333e+01
1.132256607430600859e+01 8.431555583837150314e-01 4.349937235019175205e+03 3.369950055329785243e+01
1.132605121641572588e+01 8.719878789531120278e-01 3.678581941752508101e+03 3.550741294273890958e+01
1.133084192783132949e+01 9.012743502561645359e-01 3.116568822001578155e+03 3.737175344092553075e+01
1.133663365024460035e+01 9.309893951099273979e-01 2.645002000611959375e+03 3.929428326785664183e+01
1.134330178856934523e+01 9.610957900798781095e-01 2.248733383764116752e+03 4.127681861428875720e+01
1.135062413492099154e+01 9.915725563209769611e-01 1.915123246372245148e+03 4.332123235746939116e+01
1.135834680526570040e+01 1.022376858614066464e+00 1.633691238405793229e+03 4.542945583042172331e+01
1.136631647700189163e+01 1.053500955621905488e+00 1.395848132051990433e+03 4.790157462297688085e+01
1.137446302037628243e+01 1.084942024675950689e+00 1.194350164073560791e+03 5.074357055258788307e+01
1.138284460793106589e+01 1.116663774434445866e+00 1.023642447273156108e+03 5.367427014743578439e+01
1.139113383904172494e+01 1.148642347077835968e+00 8.785662873618236972e+02 5.669644200410591850e+01
1.139922730387544370e+01 1.180845108672832433e+00 7.551649247289408322e+02 5.981294113192704742e+01
1.140715137775231014e+01 1.213215393799593755e+00 6.501523578179007927e+02 6.302671165006400145e+01
1.141480716556866426e+01 1.245732159035171094e+00 5.606429485030619162e+02 6.634078956879176303e+01
1.142182132113006965e+01 1.278372619018143252e+00 4.840927306085686155e+02 6.975830565757766522e+01
1.142827921942422087e+01 1.311081070938011850e+00 4.186238859714527507e+02 7.328248840268172160e+01
1.143401207002550635e+01 1.343839116450644910e+00 3.625064215007525377e+02 7.691666705706842322e+01
1.143896078057225196e+01 1.376605761757547119e+00 3.143605689268000560e+02 8.066427478551217689e+01
1.144302967125916659e+01 1.409331582017365525e+00 2.729971355132660733e+02 8.479151136916060238e+01
1.144608008476704697e+01 1.441968971163028579e+00 2.373908863786514871e+02 8.976185572406323843e+01
1.144810608275362362e+01 1.474456509722709141e+00 2.067666971534499112e+02 9.488733322225283473e+01
1.144904851823189418e+01 1.506766447966333189e+00 1.803598301438742340e+02 1.001727858405477321e+02
1.144886023957719168e+01 1.538859273623049972e+00 1.575663972677801326e+02 1.056232066823343700e+02
1.144745171535740447e+01 1.570705281251628227e+00 1.378469172588170863e+02 1.112437446944914967e+02
1.144481714964881469e+01 1.602282378246867367e+00 1.207661332589742784e+02 1.170397095315384206e+02
1.144082047875306962e+01 1.633565963742141802e+00 1.059305240126170560e+02 1.230165765716016750e+02
1.143544171705596213e+01 1.664520917935452760e+00 9.303702796030911770e+01 1.291799920889386613e+02
1.142862427600191033e+01 1.695129221026025368e+00 8.180702069139049115e+01 1.356076101061614452e+02
1.142033405184458950e+01 1.725261779414669183e+00 7.204676422226921773e+01 1.436753724937578909e+02
1.141051532216580000e+01 1.754808190582225480e+00 6.356005056918235141e+01 1.519949438605945602e+02
1.139909087569334822e+01 1.783793136865749140e+00 5.615664943441442603e+01 1.605741836054710632e+02
1.138603523128146655e+01 1.812154874891841017e+00 4.969337303252704174e+01 1.694211964327743942e+02
1.137128602679826628e+01 1.839906699259440614e+00 4.403822743663240402e+01 1.785443400088950625e+02
1.135486665605085577e+01 1.867028863699426555e+00 3.907665239071193497e+01 1.879522328576140069e+02
1.133670987731903601e+01 1.893496641239030831e+00 3.471877173633300373e+01 1.976537625019181519e+02
1.131679563471152328e+01 1.919265857481579740e+00 3.088618522643664832e+01 2.088735623519446278e+02
1.129509039919575031e+01 1.944126042007532140e+00 2.753119374286535503e+01 2.213916072726159427e+02
1.127144629833724387e+01 1.968036154695059770e+00 2.458609454571556086e+01 2.343003622764696843e+02
1.124590158261405115e+01 1.990977175756667439e+00 2.199629226142301164e+01 2.476120221087776372e+02
1.121834068403262208e+01 2.012979404419062757e+00 1.971035829744151258e+01 2.613391621341460791e+02
1.118870321104254018e+01 2.034031680635748351e+00 1.768757800805090241e+01 2.754947502163123545e+02
1.115709924192443836e+01 2.054094375677258277e+00 1.589704864686261487e+01 2.921647460248717607e+02
1.112344558880450052e+01 2.072934046734759672e+00 1.432079579256163271e+01 3.101305910947687607e+02
1.108765011347477270e+01 2.090553469773578588e+00 1.292864566747763533e+01 3.286571816218187791e+02
1.104960563838122667e+01 2.106978676490294689e+00 1.169212414135477651e+01 3.477620194528039974e+02
1.100930546108713948e+01 2.122201634897124656e+00 1.059277518402395657e+01 3.680356474227689887e+02
1.096685746675003159e+01 2.136151835178608405e+00 9.617579204988711439e+00 3.919123177158178919e+02
1.092217158415517630e+01 2.148736732126284465e+00 8.751772957906814199e+00 4.165342206626437473e+02
1.087512676162122993e+01 2.159969242373400711e+00 7.980190075398973626e+00 4.419246162782075658e+02
1.082574295977054746e+01 2.169866956222239462e+00 7.290732710415479545e+00 4.699590984380834016e+02
1.077415615025384987e+01 2.178336353281432825e+00 6.677748652433761478e+00 5.012893303534868892e+02
1.072029559142630895e+01 2.185375319125881788e+00 6.130165554877489598e+00 5.335974336214358118e+02
1.066401920204631892e+01 2.191003262790656603e+00 5.639364937899549624e+00 5.684331112373527048e+02
1.060560731130756551e+01 2.195195884145367149e+00 5.200711628720814161e+00 6.078740072512009647e+02
1.054493534196620352e+01 2.197918421203020056e+00 4.808330832577659919e+00 6.485459226342907186e+02
1.048197292005313130e+01 2.199200423543075988e+00 4.455388271601697703e+00 6.940417440607377557e+02
