# Radius[km]  Mass[Solar Mass] Lambda Central_pressure[MeV fm-3]
1.884915802451584099e+01 1.610330625955302686e-01 1.451691844676226191e+07 2.275008290549532575e+00
1.785743890802491762e+01 1.703416742379939564e-01 1.094619585710349679e+07 2.466832052105866424e+00
1.703598321886550693e+01 1.801803749466189541e-01 8.323780907427002676e+06 2.669289602340402912e+00
1.635033456602340607e+01 1.905367798986640493e-01 6.376004729077394120e+06 2.882589752694702412e+00
1.577296214376596240e+01 2.014148058400581365e-01 4.916560298338240013e+06 3.107276462429473973e+00
1.528393789815715209e+01 2.128054084917294919e-01 3.814504225039324258e+06 3.344034364425200412e+00
1.486716646690265442e+01 2.247111301908934489e-01 2.976036450398976915e+06 3.593163178134315405e+00
1.451033434521655430e+01 2.371285061130646299e-01 2.334429135891752318e+06 3.855277373494801374e+00
1.420375463026298135e+01 2.500548564683551245e-01 1.839962342156629311e+06 4.131206234196350024e+00
1.393927103145978208e+01 2.634957314787461646e-01 1.457502228530287510e+06 4.421293375701040418e+00
1.371064072171643033e+01 2.774497326971153144e-01 1.159552465252084890e+06 4.751856801193293123e+00
1.351212324901641537e+01 2.919653434226006650e-01 9.257801791078037350e+05 5.124222742470898595e+00
1.334007640747149992e+01 3.070203842385888504e-01 7.419674358586157905e+05 5.507910952155780748e+00
1.319110357475314466e+01 3.226007470218507645e-01 5.969811269320769934e+05 5.903265698473572520e+00
1.306195764716321328e+01 3.387027981710304392e-01 4.821475182666536421e+05 6.310641717570877773e+00
1.295032617231368732e+01 3.553045203868535062e-01 3.909027069289310602e+05 6.730404531806007284e+00
1.285384433355650025e+01 3.723956400433783842e-01 3.180688794389219256e+05 7.162930777717663844e+00
1.277054298970130120e+01 3.899684516523506117e-01 2.597319651045327191e+05 7.608608543966024484e+00
1.269875360996954861e+01 4.080040971078879308e-01 2.128467508788734267e+05 8.067837719549252995e+00
1.263700073685264869e+01 4.265021105362639675e-01 1.750093538345522538e+05 8.541030352608121490e+00
1.258395879333044576e+01 4.454460360604156621e-01 1.443447931973061350e+05 9.028611020140433041e+00
1.253854493357472499e+01 4.648315370296102200e-01 1.194223449430463370e+05 9.531017208957157649e+00
1.249978466266908583e+01 4.846413318798212799e-01 9.910789517470139253e+04 1.004869970822199043e+01
1.246673558640561019e+01 5.048753793306511861e-01 8.246329655603486754e+04 1.058212301392663868e+01
1.243870500940922774e+01 5.255202825626061891e-01 6.879687969131149293e+04 1.113176574566461241e+01
1.241502745966250920e+01 5.465683789458593012e-01 5.754191317878546397e+04 1.169812107607768503e+01
1.239500598185521874e+01 5.680090225540310733e-01 4.824401908949435892e+04 1.228169717336010791e+01
1.237820407130474365e+01 5.898346802069358574e-01 4.054204990617580916e+04 1.288301765721783987e+01
1.236416908197380060e+01 6.120308935001849138e-01 3.414276501565720537e+04 1.358385957271097233e+01
1.235244984250411449e+01 6.346033572981559789e-01 2.881573234251380927e+04 1.447920499737494104e+01
1.234277050600725723e+01 6.575205156646045657e-01 2.437060029847253827e+04 1.540177455854422917e+01
1.233484595469604272e+01 6.807713988703956165e-01 2.065296626885942896e+04 1.635239604132617330e+01
1.232831536570013142e+01 7.043464613647372197e-01 1.753617898287068601e+04 1.733192240070573575e+01
1.232294464533975464e+01 7.282304805401843550e-01 1.491882929268667613e+04 1.834123252686816841e+01
1.231846620752199506e+01 7.524108551367187925e-01 1.271489011463533097e+04 1.938123203379240067e+01
1.231461611759860197e+01 7.768747560595831159e-01 1.085614973830533017e+04 2.045285407182254289e+01
1.231122114078172736e+01 8.016078689162167148e-01 9.283509206090038788e+03 2.155706016494671573e+01
1.230807583883673040e+01 8.265987237267522492e-01 7.952007676688710490e+03 2.269484107353443747e+01
1.230496290760945932e+01 8.518311879472274528e-01 6.822824436897093619e+03 2.386721768330660609e+01
1.230178776063040935e+01 8.773000921123632612e-01 5.860410702788474737e+03 2.507524192133583085e+01
1.229833342531417628e+01 9.029831532389447357e-01 5.041314472849792764e+03 2.631999769989890225e+01
1.229449992027862493e+01 9.288537588023091374e-01 4.342961764782880891e+03 2.791734618983079486e+01
1.229016022688743348e+01 9.548502608980928841e-01 3.747345532601125342e+03 2.964933881814261696e+01
1.228520914097071248e+01 9.809573773783230033e-01 3.238218947273130198e+03 3.143399492408047280e+01
1.227951446214618514e+01 1.007167794417027418e+00 2.802276990377385118e+03 3.327291580884529765e+01
1.227295912015682688e+01 1.033460653469241652e+00 2.428305177683741022e+03 3.516775146327356083e+01
1.226554890867946845e+01 1.059822808246128067e+00 2.106998849164127478e+03 3.712020204830883330e+01
1.225709509065322500e+01 1.086239186616456243e+00 1.830370995173095480e+03 3.913201942048865334e+01
1.224754424874417325e+01 1.112694233688723333e+00 1.591927812630933886e+03 4.120500870381615499e+01
1.223681628044294989e+01 1.139176089940288072e+00 1.385994051284284978e+03 4.334102990942607647e+01
1.222486659906345352e+01 1.165669173453999008e+00 1.207990008333993273e+03 4.571983803747529862e+01
1.221165247367725293e+01 1.192070484645201489e+00 1.054288726006594061e+03 4.857155426206626458e+01
1.219706671956994448e+01 1.218376666447342993e+00 9.212636641696489050e+02 5.150998060951493329e+01
1.218109271266480143e+01 1.244542875898967393e+00 8.060856840639489747e+02 5.453775361333792659e+01
1.216363037616426546e+01 1.270563299329590778e+00 7.061353807000201641e+02 5.765758997426593169e+01
1.214467616588317256e+01 1.296437413845024311e+00 6.192346934301990586e+02 6.087228899783171698e+01
1.212415909557786797e+01 1.322140513389125305e+00 5.435754442388039251e+02 6.418473510607593369e+01
1.210204958519664409e+01 1.347668362850886536e+00 4.775785093893405815e+02 6.759790042562475776e+01
1.207835996228943465e+01 1.373166147602062459e+00 4.196868511509418340e+02 7.173811212879296306e+01
1.205353874214399923e+01 1.399047720482086810e+00 3.683509228450643604e+02 7.623709297428604259e+01
1.202814746801449530e+01 1.425359100106371679e+00 3.229553010926392744e+02 8.087287115553193928e+01
1.200234889453333409e+01 1.452053102984655508e+00 2.829700982728870144e+02 8.564960617258456921e+01
1.197629102186301608e+01 1.479095481038675164e+00 2.478183740008775828e+02 9.057158400048058411e+01
1.195009450807382656e+01 1.506445056269946514e+00 2.170133390413238317e+02 9.564322093487518828e+01
1.192370612373183647e+01 1.534024618996198353e+00 1.900301256245005845e+02 1.008690675546090318e+02
1.189716231096944199e+01 1.561815317268930636e+00 1.664107325867774989e+02 1.062538128047624184e+02
1.187043087404996200e+01 1.589750734500545049e+00 1.457824555803336182e+02 1.118022882038597885e+02
1.184348224985774856e+01 1.617785034991683579e+00 1.277590106609523417e+02 1.175194721789998908e+02
1.181625665014609794e+01 1.645861115575888878e+00 1.120229682138935914e+02 1.237962038189192242e+02
1.178881452019650666e+01 1.673921747196949639e+00 9.828758773863732756e+01 1.313826970789700397e+02
1.176115675263178240e+01 1.701895583212773122e+00 8.631384126344752872e+01 1.391998674859843845e+02
1.173331129527947247e+01 1.729778512895468356e+00 7.586587148286967874e+01 1.472547290771870223e+02
1.170518811738137011e+01 1.757492971384247316e+00 6.674647378282013221e+01 1.555545091606828123e+02
1.167677265336280357e+01 1.785009165443494306e+00 5.878112358533213211e+01 1.641066548002343666e+02
1.164799525737287134e+01 1.812296445402205913e+00 5.181557648477829758e+01 1.729188394972165383e+02
1.161872806607044950e+01 1.839296205482825020e+00 4.572126265986555183e+01 1.819989700757458877e+02
1.158898370414823553e+01 1.865987546222975579e+00 4.038578025950855732e+01 1.913551937771599114e+02
1.155864806903520936e+01 1.892324403091740770e+00 3.570794251825761734e+01 2.009959055702143473e+02
1.152776454534993889e+01 1.918143203636904826e+00 3.162067442378873494e+01 2.128545094833455096e+02
1.149608617960205592e+01 1.943057063551913988e+00 2.807295456126950839e+01 2.254719264907465970e+02
1.146338760590763073e+01 1.967037344069185956e+00 2.498583617383703626e+01 2.384729923933022064e+02
1.142944774023198207e+01 1.990083930323843564e+00 2.228438192210980162e+01 2.518693725322361843e+02
1.139418659333997219e+01 2.012193515932569010e+00 1.991476525725529001e+01 2.656730869485710400e+02
1.135748761013905117e+01 2.033381095649236858e+00 1.782844884352624959e+01 2.798965211682339032e+02
1.131929651133767400e+01 2.053509663842977506e+00 1.599358267880920259e+01 2.966942011168042086e+02
1.127955621857490698e+01 2.072248456594037336e+00 1.439270366012798341e+01 3.147695863216640646e+02
1.123795694265192679e+01 2.089591771910230378e+00 1.298887092488152817e+01 3.333945770091095824e+02
1.119432376219836911e+01 2.105557413151442958e+00 1.175136901092258768e+01 3.525858846452076136e+02
1.114857477478100378e+01 2.120155573905102120e+00 1.065700696999477337e+01 3.739492630588804900e+02
1.110076132001135818e+01 2.133052773584277695e+00 9.698005167021273465e+00 3.977670385577305296e+02
1.105063512804638393e+01 2.144237484447534037e+00 8.854945324639356130e+00 4.223090243485772817e+02
1.099792615881692548e+01 2.153710528095890808e+00 8.109081555675395236e+00 4.488907681301504908e+02
1.094283051390514849e+01 2.161250014894801286e+00 7.455730156126215036e+00 4.787613345948627739e+02
1.088495896855277856e+01 2.166757680903810268e+00 6.882185322501637614e+00 5.095401542951697138e+02
1.082444226674892640e+01 2.170156309953686247e+00 6.380682869408526692e+00 5.453031064714203922e+02
1.076103255329364217e+01 2.171213976482975649e+00 5.945074630728498732e+00 5.830600955306910009e+02
