# Radius[km]  Mass[Solar Mass] Lambda Central_pressure[MeV fm-3]
1.890111152036342190e+01 1.691018626373398670e-01 1.356858060414227843e+07 2.156929990072205428e+00
1.802184537127050135e+01 1.780920769061558329e-01 1.043966876039170474e+07 2.348467539300807871e+00
1.728068327886130362e+01 1.874261360713610769e-01 8.092138282291498967e+06 2.552775795179121232e+00
1.664947713723556433e+01 1.971071003666631238e-01 6.314933428395093419e+06 2.770510316812186957e+00
1.610606066463901698e+01 2.071532953805031718e-01 4.954468684044872411e+06 3.002339686958746867e+00
1.563483602711659692e+01 2.175678239499657385e-01 3.907021193032392766e+06 3.248947987317088781e+00
1.522023660483935892e+01 2.284736397824954912e-01 3.087119927595739253e+06 3.544595932446139130e+00
1.484807088667863439e+01 2.401986422918056252e-01 2.432725782751123421e+06 3.866207186371878102e+00
1.451753258520826328e+01 2.527391000911601293e-01 1.915724368256362388e+06 4.197858425142445782e+00
1.422637550752414271e+01 2.660713524222375614e-01 1.509275644923303276e+06 4.539863074654649999e+00
1.397147055428220597e+01 2.801638337913101018e-01 1.191576339923313120e+06 4.892544345261568672e+00
1.374918107896232478e+01 2.949964294019022937e-01 9.430129739753367612e+05 5.256235537221451537e+00
1.355618314129354118e+01 3.105538634995826386e-01 7.487449649789836258e+05 5.631280355681973937e+00
1.338928816246397702e+01 3.268145622101061298e-01 5.966377928354900796e+05 6.018033235497664002e+00
1.324535093189675550e+01 3.437526509825198362e-01 4.771911043825261877e+05 6.416859676187377737e+00
1.312165620526801391e+01 3.613543878930339237e-01 3.831207108885903726e+05 6.828136587348398123e+00
1.301590573832112163e+01 3.796077812665356044e-01 3.088120381621777196e+05 7.252252644853590446e+00
1.292560089805587786e+01 3.984832662673608028e-01 2.498435771917021775e+05 7.689608658168234356e+00
1.284912882628031561e+01 4.179827193994718471e-01 2.029065955009574245e+05 8.140617949133686082e+00
1.278474162030362393e+01 4.380853072851596530e-01 1.654089043682963820e+05 8.605706742575810253e+00
1.273076274455851120e+01 4.587751726430548960e-01 1.352926138049142901e+05 9.085314569107294957e+00
1.268610488404310210e+01 4.800427032488399082e-01 1.110346874615867855e+05 9.579894680504622784e+00
1.264953308572740376e+01 5.018708846096575638e-01 9.143414546999553568e+04 1.008991447805214037e+01
1.262000539620265194e+01 5.242666102466371214e-01 7.550883740143296018e+04 1.061585595425808393e+01
1.259652449620703329e+01 5.471922714135012411e-01 6.254411648728554428e+04 1.115821614835999753e+01
1.257822791985067923e+01 5.706404083028661089e-01 5.194554379208236787e+04 1.171750761604999447e+01
1.256467558699453768e+01 5.946109304552674724e-01 4.325751890150274994e+04 1.229425891386379632e+01
1.255507751885023282e+01 6.190843832559917992e-01 3.611186996689267835e+04 1.288901509869136497e+01
1.254892590642709926e+01 6.440557866575471468e-01 3.021395701450546767e+04 1.356204431214530892e+01
1.254593076138793073e+01 6.697414067178399932e-01 2.530141049708838545e+04 1.447963257638407697e+01
1.254626279940674216e+01 6.962172234002984572e-01 2.119859253670954786e+04 1.542586589627402560e+01
1.254974016628268529e+01 7.234494132264392974e-01 1.777938978971019969e+04 1.640163850645747701e+01
1.255613029735826558e+01 7.514126970797395666e-01 1.492870615001068472e+04 1.740787255758447571e+01
1.256527373767093003e+01 7.800680439927120124e-01 1.255251727059116820e+04 1.844551898778823684e+01
1.257660895341182616e+01 8.093987171762965227e-01 1.056891366566882607e+04 1.951555842136600916e+01
1.259011855490608944e+01 8.393694249797610807e-01 8.912911424139056180e+03 2.061900209551482632e+01
1.260541435090672557e+01 8.699417291715387801e-01 7.528963899700983347e+03 2.175689281599783342e+01
1.262229307156741953e+01 9.011047134712166784e-01 6.369504259291144081e+03 2.293030594264438449e+01
1.264039722485503958e+01 9.328243424194244682e-01 5.397424630042007266e+03 2.414035040561531531e+01
1.265952127524653115e+01 9.650657685548873488e-01 4.581694166289204077e+03 2.538816975339359772e+01
1.267945204811993243e+01 9.978052335830580599e-01 3.895239033975497023e+03 2.667494323349113117e+01
1.269996924334065014e+01 1.031009479807845963e+00 3.317193011811165434e+03 2.800188690689255822e+01
1.272079094240443631e+01 1.064665157039966781e+00 2.828906080219073829e+03 2.937025479728973920e+01
1.274181074369747968e+01 1.098730509403138988e+00 2.416520599764029612e+03 3.078134007619255641e+01
1.276287198709560577e+01 1.133174999611200384e+00 2.067249605509841331e+03 3.223647628503648122e+01
1.278356713922719301e+01 1.167983826769421141e+00 1.770850382418056142e+03 3.373703859544128392e+01
1.280394963308023826e+01 1.203116667423058894e+00 1.519236327663568090e+03 3.528444510881250551e+01
1.282382824994315484e+01 1.238547192049609613e+00 1.305078250283481339e+03 3.693037213324724632e+01
1.284311799993237635e+01 1.274253913587563014e+00 1.122598381345668258e+03 3.919194407517019840e+01
1.286176817993474586e+01 1.310206409905980252e+00 9.669206934387617594e+02 4.152411724060516462e+01
1.287974628376278829e+01 1.346366326458272811e+00 8.340668825694003772e+02 4.392909564202199846e+01
1.289693316524211220e+01 1.382703310124308249e+00 7.204153409529898227e+02 4.640915209623590698e+01
1.291324138070483585e+01 1.419175897799699326e+00 6.231566222116954350e+02 4.896663037232541171e+01
1.292858911616505857e+01 1.455741652674034547e+00 5.397695065147014475e+02 5.160394740660353108e+01
1.294285425114146726e+01 1.492376439496875040e+00 4.681544094163472209e+02 5.432359558673539368e+01
1.295595030901204936e+01 1.529041858697520073e+00 4.065652220813816484e+02 5.712814510716083305e+01
1.296781160589235249e+01 1.565686423446411846e+00 3.535472730760994295e+02 6.002024639804808004e+01
1.297833058944376461e+01 1.602294320906692437e+00 3.078592610341015643e+02 6.300263263007399672e+01
1.298734789474288398e+01 1.638833726548112102e+00 2.683195424846946935e+02 6.607812229739786858e+01
1.299493192677581632e+01 1.675261518845136743e+00 2.341610210982369722e+02 6.924962188126988849e+01
1.300091369728312074e+01 1.711544213717671292e+00 2.045807934626268150e+02 7.252012859679163626e+01
1.300525397414001993e+01 1.747651808643585714e+00 1.789293142601883631e+02 7.589800983243524968e+01
1.300787680069528385e+01 1.783473145232123969e+00 1.567035067123016177e+02 8.052590047991073163e+01
1.300873945927049391e+01 1.818893217959367536e+00 1.374402310948063359e+02 8.529826353435889530e+01
1.300782853351057611e+01 1.853902453963172547e+00 1.207236590550464967e+02 9.021960910156380464e+01
1.300507404323373883e+01 1.888454010966195806e+00 1.061987889148131501e+02 9.529458808273595594e+01
1.300052444546642860e+01 1.922531190888789432e+00 9.355330336430961324e+01 1.005279965698313021e+02
1.299399663074222566e+01 1.956122718501396740e+00 8.251475949366781037e+01 1.059247803780818344e+02
1.298558080773194945e+01 1.989187745506582949e+00 7.286929930490467200e+01 1.114900397200217697e+02
1.297518531308158174e+01 2.021712636054579626e+00 6.442419086292623831e+01 1.172290340254263867e+02
1.296276503362277843e+01 2.053675361975424885e+00 5.702130037939069496e+01 1.231471869117185634e+02
1.294835043171308619e+01 2.085058374125483560e+00 5.051928885834767158e+01 1.292500913095405224e+02
1.293184718046344983e+01 2.115801499395725926e+00 4.480409006176117970e+01 1.359666854071501234e+02
1.291300399465935200e+01 2.145248741768114531e+00 3.985513115429048980e+01 1.442838246593224198e+02
1.289125296891433692e+01 2.173047949626697228e+00 3.557957627205592388e+01 1.528606064178588042e+02
1.286623095410299555e+01 2.199236442413584847e+00 3.185377137770609224e+01 1.617051361417477437e+02
1.283782003981895414e+01 2.223813600603007590e+00 2.859526890913116759e+01 1.708257723242993507e+02
1.280593914037359049e+01 2.246855926480168630e+00 2.572703992121977024e+01 1.802311343923112474e+02
1.277056233302883825e+01 2.268301771741140005e+00 2.320101523592126114e+01 1.907509894656030554e+02
1.273149168975141698e+01 2.287123756691517684e+00 2.103708895897192122e+01 2.029185396205550092e+02
1.268766397639074661e+01 2.302971682985427648e+00 1.918380626605234340e+01 2.154659335081601057e+02
1.263868236485454410e+01 2.315956372821166731e+00 1.757658580604171661e+01 2.292709031085368849e+02
1.258450555574316354e+01 2.325984955866339021e+00 1.618512655680673973e+01 2.449510693950706752e+02
1.252488866886462482e+01 2.333121483850704170e+00 1.497001550191741259e+01 2.611207354424478808e+02
1.245993712098270123e+01 2.337549342703849842e+00 1.390171297736233491e+01 2.799123290300908025e+02
1.238977737014428371e+01 2.339250246624378526e+00 1.296303839468608210e+01 2.998041967471985458e+02
