# Radius[km]  Mass[Solar Mass] Lambda Central_pressure[MeV fm-3]
1.897261516591919417e+01 1.628913430480082858e-01 1.455039050469030254e+07 2.237516998292851333e+00
1.799645831181205935e+01 1.719603845749524684e-01 1.102958672906314023e+07 2.436669927900598331e+00
1.718276667608404296e+01 1.814747186505217269e-01 8.428717375923184678e+06 2.648118157429689923e+00
1.649796544876659965e+01 1.914321725174936983e-01 6.487906211059665307e+06 2.872709228594111153e+00
1.591657314623340191e+01 2.018256654331456179e-01 5.025600669543271884e+06 3.110935031356628411e+00
1.541939434266954123e+01 2.126541617593286915e-01 3.916153796651453711e+06 3.363739717465781709e+00
1.499143261234274682e+01 2.239090225499204834e-01 3.068263780057316180e+06 3.631598128837503214e+00
1.462084858565608592e+01 2.355938189055122589e-01 2.416316291189841460e+06 3.915752923635662963e+00
1.429826378465503822e+01 2.477025403660756131e-01 1.911810114425392821e+06 4.216666185918225729e+00
1.401606872248129498e+01 2.602369577973027148e-01 1.519885299481592374e+06 4.535451596209703951e+00
1.376843812168118930e+01 2.731890948636818695e-01 1.212882327185206348e+06 4.873187300965658331e+00
1.354975853976980638e+01 2.865984415118172923e-01 9.714001718135633273e+05 5.259591198888951880e+00
1.335398015016325246e+01 3.007195187077107978e-01 7.779502238932757173e+05 5.692340952202778581e+00
1.317997930738824053e+01 3.155734569877378104e-01 6.235836046792035922e+05 6.138655359923794741e+00
1.302632658849978142e+01 3.311271220722321051e-01 5.005776044261546340e+05 6.598959609698621165e+00
1.289136822062235233e+01 3.473673521342948156e-01 4.026843294637756771e+05 7.073692216792063725e+00
1.277322543401782795e+01 3.642774759295410170e-01 3.247073024913074914e+05 7.563305441844817345e+00
1.267043941529449214e+01 3.818283306258085652e-01 2.626165672814055579e+05 8.068265721725854434e+00
1.258124842276687616e+01 4.000026002342210729e-01 2.130209697942620842e+05 8.589054113890014719e+00
1.250416272301501230e+01 4.187830915475882487e-01 1.733208673874808883e+05 9.126166754664097880e+00
1.243788836164031331e+01 4.381595890431644325e-01 1.414543341831277648e+05 9.680115331898106135e+00
1.238120310048878103e+01 4.581056176863496088e-01 1.158036994396556402e+05 1.025142757243173008e+01
1.233293354577769563e+01 4.786133890438222238e-01 9.509779685262059502e+04 1.084064774484074967e+01
1.229212750200826854e+01 4.996687863151929587e-01 7.832091180877915758e+04 1.144833717794205619e+01
1.225778001809961459e+01 5.212535984552488788e-01 6.468792740135134954e+04 1.207507479555136776e+01
1.222921572425006964e+01 5.433550960099906568e-01 5.357995386914621486e+04 1.272145766800313638e+01
1.220561609728690300e+01 5.659542214312965891e-01 4.449689345208172745e+04 1.338810158095786562e+01
1.218635007367776524e+01 5.890461277100637050e-01 3.704846105307608377e+04 1.407564162203892622e+01
1.217089146088370022e+01 6.126108802890302130e-01 3.092173745960665110e+04 1.478473278585768469e+01
1.215857361210149534e+01 6.366480204225617445e-01 2.586722948126849951e+04 1.559878253073139298e+01
1.214930889010709514e+01 6.613454170692726342e-01 2.165695871966322011e+04 1.664483846620566965e+01
1.214311402783358140e+01 6.867402851503980887e-01 1.814829192177100776e+04 1.772368329906610995e+01
1.213974256632088355e+01 7.128205086255500200e-01 1.522413082095232130e+04 1.883634480589267213e+01
1.213900552327266524e+01 7.395338286027347552e-01 1.278916721020347541e+04 1.998388297919153445e+01
1.214067173381001830e+01 7.668681875841575346e-01 1.075948718557221400e+04 2.116739103721166870e+01
1.214442360642851249e+01 7.947820301072261451e-01 9.066316150696264231e+03 2.238799646541452404e+01
1.215001552959160769e+01 8.232546572420509357e-01 7.651515100479326975e+03 2.364686209058879029e+01
1.215720947568582488e+01 8.522559953698725099e-01 6.468173107519901350e+03 2.494518718863350770e+01
1.216562520017583182e+01 8.817631811238706430e-01 5.476680837538430751e+03 2.628420862706503058e+01
1.217513767354516219e+01 9.117460246653085187e-01 4.645057892205025382e+03 2.766520204333605193e+01
1.218547760134324065e+01 9.421729887794252356e-01 3.946388399501401182e+03 2.908948306008953466e+01
1.219642642223704421e+01 9.730234949887384133e-01 3.358457703138186389e+03 3.055840853850481764e+01
1.220782839325667624e+01 1.004263757365922327e+00 2.862083184377625912e+03 3.207337787093053549e+01
1.221933412009449960e+01 1.035872456883524029e+00 2.443258528007630957e+03 3.363583431403505131e+01
1.223092472791624985e+01 1.067819053942506313e+00 2.088503016042212039e+03 3.524726636374526834e+01
1.224233170077752852e+01 1.100075077924663747e+00 1.788035342518632660e+03 3.715879043014827943e+01
1.225349996650381179e+01 1.132601176818760491e+00 1.533123648402246090e+03 3.942718643246409016e+01
1.226434839866883486e+01 1.165379233813923721e+00 1.316482921782615222e+03 4.176668590184010554e+01
1.227476321589253772e+01 1.198351342994561808e+00 1.132367823182301890e+03 4.417951759508196830e+01
1.228459926636904775e+01 1.231499363973246997e+00 9.753475623132119381e+02 4.666798012996130751e+01
1.229374794692343364e+01 1.264787412767907737e+00 8.413957440037460174e+02 4.923444417502615522e+01
1.230209900580506321e+01 1.298185746819964459e+00 7.268846938802506656e+02 5.188135470805131177e+01
1.230953730288534054e+01 1.331658864482786919e+00 6.288556669698350561e+02 5.461123334528058848e+01
1.231596581292926729e+01 1.365181171744363597e+00 5.447923541104844389e+02 5.742668074367961850e+01
1.232127586228610561e+01 1.398714738746498654e+00 4.725669015589519404e+02 6.033037907848813575e+01
1.232537059007471925e+01 1.432241084327389835e+00 4.104317909463482010e+02 6.332509459843146971e+01
1.232819417582298804e+01 1.465721220860358942e+00 3.569129270533143199e+02 6.641368026102611566e+01
1.232962578927200781e+01 1.499093545948499084e+00 3.107563720196060899e+02 7.011769367664913943e+01
1.232952038018536456e+01 1.532167842615341113e+00 2.710663504703664444e+02 7.432393165241595057e+01
1.232780163624451752e+01 1.564921471557454868e+00 2.368527963246810941e+02 7.866201525965627184e+01
1.232433907669274475e+01 1.597305991777583811e+00 2.073114112500844328e+02 8.313607723423504581e+01
1.231910571102501528e+01 1.629314048563982542e+00 1.817274855878242477e+02 8.775037985370563831e+01
1.231204849273123259e+01 1.660926189361844330e+00 1.595277678639479859e+02 9.250931899782827372e+01
1.230310023573293421e+01 1.692117331246073553e+00 1.402324515765627666e+02 9.741742833636587307e+01
1.229221935238461860e+01 1.722875596293286682e+00 1.234222404262562947e+02 1.024793836481482145e+02
1.227934385128435402e+01 1.753176778183809015e+00 1.087507886435030855e+02 1.077000072755175211e+02
1.226448053259057147e+01 1.782939040488499716e+00 9.595114904313990678e+01 1.140565424226128073e+02
1.224753624952104580e+01 1.811963574067658289e+00 8.482089425121677095e+01 1.209827256491433616e+02
1.222842238693214512e+01 1.840243024593662069e+00 7.510451472270999318e+01 1.281260119037156358e+02
1.220708604534726760e+01 1.867748486726534596e+00 6.661355310801066310e+01 1.354932063376293456e+02
1.218351025021450873e+01 1.894494821272753038e+00 5.916531860489625672e+01 1.430913274114344347e+02
1.215764077522192643e+01 1.920475474752119993e+00 5.261753558635299299e+01 1.509276135811661277e+02
1.212951324285015531e+01 1.945693224546138689e+00 4.685107830808053819e+01 1.590095301941603907e+02
1.209908860720575596e+01 1.970062257901115776e+00 4.177267453513548645e+01 1.688878570285722276e+02
1.206644476870037863e+01 1.993434691931223801e+00 3.731363781146283998e+01 1.793959761334742780e+02
1.203150868922751471e+01 2.015816139730581824e+00 3.338763100515070192e+01 1.902334749850685967e+02
1.199420346557539929e+01 2.037211975559509725e+00 2.991402899919554415e+01 2.014106780778195969e+02
1.195455845330188360e+01 2.057635783358999770e+00 2.684055681134164928e+01 2.129382335301757792e+02
1.191255058900477515e+01 2.077098351645282559e+00 2.410948349622884734e+01 2.252587233390233621e+02
1.186832474482944733e+01 2.095494002842839265e+00 2.169322840777117278e+01 2.400173136713567317e+02
1.182187895321468751e+01 2.112752227615903866e+00 1.955173837146010030e+01 2.552385158847192486e+02
1.177319774179630762e+01 2.128921636537319806e+00 1.764953385791828921e+01 2.709368306697356275e+02
1.172220962438718672e+01 2.143980836524704170e+00 1.595438507251483884e+01 2.871272132449785204e+02
1.166898351666829647e+01 2.157994010844878296e+00 1.443955606700204974e+01 3.050439904118074423e+02
1.161368721864169729e+01 2.170836073809533140e+00 1.308980651830388453e+01 3.255210320224089742e+02
1.155633483363128633e+01 2.182492057940292440e+00 1.188776202112153157e+01 3.466399318677113683e+02
1.149683656028412848e+01 2.193009963905629078e+00 1.081128053895803376e+01 3.684208091622627421e+02
1.143522942190128155e+01 2.202411849345488282e+00 9.845277502621971877e+00 3.917747596651910840e+02
1.137175550101303756e+01 2.210647712803742060e+00 8.980697154127565085e+00 4.190514306651498941e+02
1.130641868419449381e+01 2.217689526159155378e+00 8.206266620265154188e+00 4.471830960646658468e+02
1.123920291173253538e+01 2.223595002837670975e+00 7.509754450639453793e+00 4.761965558872199153e+02
1.117008748365981141e+01 2.228366158801970531e+00 6.882447910039587669e+00 5.088384252667471515e+02
1.109939455176684397e+01 2.231906226263018933e+00 6.321078966661763943e+00 5.448280119639933901e+02
1.102711890958797447e+01 2.234278816340736551e+00 5.815882925422423355e+00 5.819457016862955925e+02
1.095305867273999212e+01 2.235439283852357129e+00 5.360938165427099555e+00 6.225068576560048541e+02
