# Radius[km]  Mass[Solar Mass] Lambda Central_pressure[MeV fm-3]
1.883301747394980907e+01 1.671430856733896186e-01 1.366102802708924003e+07 2.188408601026617717e+00
1.806446540998793893e+01 1.748554294660024933e-01 1.090150661479462124e+07 2.344077821327189781e+00
1.740305466830287173e+01 1.828671949814344722e-01 8.746733821571724489e+06 2.507422402512808457e+00
1.683068544189261573e+01 1.911666621238627406e-01 7.054430131575123407e+06 2.679155710460533246e+00
1.633192858850278029e+01 1.997561236813805430e-01 5.716090819082384929e+06 2.859138591247213590e+00
1.589484054175738770e+01 2.086292068555289092e-01 4.651836288175621070e+06 3.048356395236279326e+00
1.551036120334329205e+01 2.177787716384771421e-01 3.800337598205698654e+06 3.246602264166155383e+00
1.517036466586383270e+01 2.272033088036599369e-01 3.117945225821827073e+06 3.454868252918360305e+00
1.486844147246555714e+01 2.369003567755851303e-01 2.566645443413061555e+06 3.673199728989882118e+00
1.459943826747504225e+01 2.468608613900238891e-01 2.120315222653544042e+06 3.902229051793674852e+00
1.435890701031271277e+01 2.570832166133853458e-01 1.757310801502506947e+06 4.142677282936527483e+00
1.414305889599574684e+01 2.675635185211772127e-01 1.461142198779009748e+06 4.394684354649251112e+00
1.394899334284119341e+01 2.782917062427663901e-01 1.218535781712992350e+06 4.659159891597036030e+00
1.377386449343372909e+01 2.892577508503598183e-01 1.019343093856900348e+06 4.936829443148283758e+00
1.361538178259853815e+01 3.004613798336089325e-01 8.550839714688397944e+05 5.228101413322969293e+00
1.347159963698544338e+01 3.118937026270065527e-01 7.193094754387417343e+05 5.533771410044495909e+00
1.334085516929376958e+01 3.235372264556058974e-01 6.067794948188582202e+05 5.854683545672097367e+00
1.322158491368766953e+01 3.353825423681328077e-01 5.132304821873926558e+05 6.191731204310786829e+00
1.311254044521333029e+01 3.474143954107715704e-01 4.352777598434981192e+05 6.545857702712981840e+00
1.301248928124831927e+01 3.596155080840420792e-01 3.701502739943606430e+05 6.918056832760498764e+00
1.292038615174577032e+01 3.719716509313291675e-01 3.155964201098821941e+05 7.309373272779314590e+00
1.283423493631920564e+01 3.847090987062500855e-01 2.690738014748570859e+05 7.780551699150443312e+00
1.275319970006410308e+01 3.981790242618287734e-01 2.286496709948464995e+05 8.271229567622357948e+00
1.267828419614357038e+01 4.123774865556468772e-01 1.938613994407921273e+05 8.774437378353045602e+00
1.260994533360439540e+01 4.272849903103094205e-01 1.641423001179239363e+05 9.290495095749079724e+00
1.254837460746223954e+01 4.428947501453330826e-01 1.388862924153409840e+05 9.819730854823058408e+00
1.249358821922157148e+01 4.591849488813460334e-01 1.174874091448159888e+05 1.036248116983801637e+01
1.244543635021411276e+01 4.761432905022097706e-01 9.944225475075743452e+04 1.091909114827993932e+01
1.240368415424619819e+01 4.937445612921105287e-01 8.418070869156722620e+04 1.148991471029398781e+01
1.236807775019252098e+01 5.119970155915731791e-01 7.134855728782113874e+04 1.207531481372463489e+01
1.233823027524459448e+01 5.308637985324062836e-01 6.054569389804376988e+04 1.267566368490204809e+01
1.231386675872047576e+01 5.503444828839453296e-01 5.144619568557467574e+04 1.329134305532206284e+01
1.229457388327392309e+01 5.704179488372587148e-01 4.377758339365995926e+04 1.392274440436993288e+01
1.227999031682400677e+01 5.910679832178729054e-01 3.731324605178728234e+04 1.457026920824227467e+01
1.226981279408015801e+01 6.122942107438200665e-01 3.185424074520039358e+04 1.523432919522552709e+01
1.226367303256114383e+01 6.340744224192569334e-01 2.724164316962105659e+04 1.591534660749302432e+01
1.226122845453050303e+01 6.563958213419724963e-01 2.333581990938190211e+04 1.661375446958763291e+01
1.226212920738444367e+01 6.792483221799716642e-01 2.002463769567083364e+04 1.732999686376001947e+01
1.226612630784072344e+01 7.026191918653735824e-01 1.721221130344452467e+04 1.806452921233816156e+01
1.227294011750437441e+01 7.264881264342707423e-01 1.482127506943033404e+04 1.881781856730736635e+01
1.228225842936827839e+01 7.508529897257604224e-01 1.278282292940816478e+04 1.959034390728503539e+01
1.229385257237692919e+01 7.756962860036422658e-01 1.104229177880134739e+04 2.038259644207892052e+01
1.230751117902079450e+01 8.010018522159821908e-01 9.554797800113239646e+03 2.119507992502266802e+01
1.232290777127784764e+01 8.267677222542434423e-01 8.279438301572396085e+03 2.202831097328698462e+01
1.233995208146246547e+01 8.529676872224708495e-01 7.185483068838657346e+03 2.288281939637053242e+01
1.235838605089496056e+01 8.795940290008966711e-01 6.245233958045654617e+03 2.375914853297883411e+01
1.237803893526203147e+01 9.066313501743283876e-01 5.435750267769358288e+03 2.465785559650602821e+01
1.239871241415947090e+01 9.340719642226582575e-01 4.737466256032970705e+03 2.557951202933861978e+01
1.242028812427336426e+01 9.618946821565182992e-01 4.134027486944013617e+03 2.652470386620680287e+01
1.244256213727694593e+01 9.900891041695722983e-01 3.611988018643995474e+03 2.749403210681437670e+01
1.246543334140225667e+01 1.018639016575243694e+00 3.159795329333944665e+03 2.848811309798401936e+01
1.248874886871204737e+01 1.047532172400693407e+00 2.767523895003136204e+03 2.950757892556104878e+01
1.251238137499210978e+01 1.076753806564963556e+00 2.426550300133049859e+03 3.073311832869158167e+01
1.253625947803844376e+01 1.106297295642950873e+00 2.129681156297485359e+03 3.223425238906641965e+01
1.256036994365663872e+01 1.136139107445900187e+00 1.871464059098498183e+03 3.377371938497336856e+01
1.258460307102911457e+01 1.166263218558222459e+00 1.646196712003294124e+03 3.535249818564553692e+01
1.260884715476640672e+01 1.196650135004184490e+00 1.449793317761662138e+03 3.697159265670531170e+01
1.263304601690314577e+01 1.227273463180621249e+00 1.277960324544026662e+03 3.863203229847160003e+01
1.265712765435584508e+01 1.258115723911553463e+00 1.127787831461959513e+03 4.033487290056708474e+01
1.268095298810781379e+01 1.289160950411988749e+00 9.963318881559463307e+02 4.208119721324153772e+01
1.270449636484219091e+01 1.320380928547301602e+00 8.811069076068683898e+02 4.387211563583795026e+01
1.272766862948578037e+01 1.351766167347684622e+00 7.799621472025525009e+02 4.570876692283923148e+01
1.275035832794696589e+01 1.383285229594542365e+00 6.911431602506096397e+02 4.759231890794475106e+01
1.277253446384610669e+01 1.414927585488039874e+00 6.130583843491133393e+02 4.952396924663658240e+01
1.279415031317233264e+01 1.446675483637615001e+00 5.442231552001387627e+02 5.150494617770834083e+01
1.281506805572004382e+01 1.478499608082442851e+00 4.835824730577821811e+02 5.353650930423981436e+01
1.283528682456990744e+01 1.510385021390130866e+00 4.300823991185008026e+02 5.561995039451510081e+01
1.285476275180186256e+01 1.542313595751278132e+00 3.828687190557749318e+02 5.775659420339272998e+01
1.287337941313114342e+01 1.574263896364229920e+00 3.410973468189616256e+02 5.994779931465021150e+01
1.289110865291273278e+01 1.606227707424152218e+00 3.041529759746511559e+02 6.219495900483883588e+01
1.290791190576350012e+01 1.638165733729121332e+00 2.713935486192846724e+02 6.449950212919776504e+01
1.292374764136959442e+01 1.670071684762899800e+00 2.423685994751251940e+02 6.686289403019094379e+01
1.293852938920245776e+01 1.701924023170084732e+00 2.166018238021528930e+02 6.928663746924414113e+01
1.295218500001476869e+01 1.733609978345419078e+00 1.937885860656264470e+02 7.221913730674660314e+01
1.296407695357537726e+01 1.764598207605189595e+00 1.737945759622237745e+02 7.561227611069510601e+01
1.297400633099305978e+01 1.794840174028913493e+00 1.562330474234979647e+02 7.909206205326812267e+01
1.298172487187434321e+01 1.824305816262963509e+00 1.407510726648784214e+02 8.266070775442189245e+01
1.298721755016519275e+01 1.853020012513509451e+00 1.270399057127041686e+02 8.632048233554067451e+01
1.299049573457195095e+01 1.881001849802471426e+00 1.148625681511142034e+02 9.007371286225634321e+01
1.299132311066726864e+01 1.908235049991498178e+00 1.040052398605413089e+02 9.392278582411192644e+01
1.298990418347493403e+01 1.934772276304198790e+00 9.430417410927941546e+01 9.787014865200947611e+01
1.298614660600754789e+01 1.960601900014717680e+00 8.561667235859769676e+01 1.019183112744075856e+02
1.298003026547806371e+01 1.985738099753558306e+00 7.781116809459381045e+01 1.060698477132583122e+02
1.297150626037197796e+01 2.009947100421267674e+00 7.084612995503385946e+01 1.110838206124292498e+02
1.295987455347557926e+01 2.032484782550967761e+00 6.475216994946973159e+01 1.165381754164114909e+02
1.294469123458312509e+01 2.053307902786420058e+00 5.937608016274501921e+01 1.221318125380688997e+02
1.292585354221182925e+01 2.072501002961364858e+00 5.460551167846151088e+01 1.278682886884545127e+02
1.290323783252545553e+01 2.090112440888312495e+00 5.034697374766356859e+01 1.337512514027378643e+02
1.287686869778690912e+01 2.105794845278571970e+00 4.659135204113051998e+01 1.406895449736468322e+02
1.284615000983567157e+01 2.118609586761973862e+00 4.338523552531493976e+01 1.480591283192051719e+02
1.281027204993629454e+01 2.128489042646736884e+00 4.063379423217499209e+01 1.559707151547627006e+02
1.276934291027190760e+01 2.134926118547483487e+00 3.834422596526550109e+01 1.649184914792013785e+02
1.272267348496175465e+01 2.137726432121823450e+00 3.645598379696480862e+01 1.749132668141121769e+02
