# Radius[km]  Mass[Solar Mass] Lambda Central_pressure[MeV fm-3]
1.994807960684244819e+01 1.484699848659594146e-01 1.936159467509939894e+07 2.408481974186795327e+00
1.893437429259070370e+01 1.542971180783767327e-01 1.536747428664334491e+07 2.617827595915201755e+00
1.805342978772165097e+01 1.603932984340351309e-01 1.224887475081754290e+07 2.840566475406228530e+00
1.728372609590281783e+01 1.667554321954624885e-01 9.803797703048203140e+06 3.077413103039426279e+00
1.660676731060279465e+01 1.733961224019280323e-01 7.872007108973870054e+06 3.329227431460102693e+00
1.600711323985854762e+01 1.803314678509413682e-01 6.337417390156182460e+06 3.596086480376997407e+00
1.547430685889359481e+01 1.875666851275890057e-01 5.115822598099279217e+06 3.878550602218092003e+00
1.499867857733926790e+01 1.951123205961107498e-01 4.139032521178166382e+06 4.177987530254782200e+00
1.457304958463528521e+01 2.029688065169207301e-01 3.356802757967298850e+06 4.494526776122465428e+00
1.419099345087890640e+01 2.111437524097874718e-01 2.728363494438702241e+06 4.828658458942288512e+00
1.384670959930036993e+01 2.196508841451646210e-01 2.222018137382460292e+06 5.181836615935908164e+00
1.353621632219599746e+01 2.284828977084554513e-01 1.813520246264698682e+06 5.554545458450722784e+00
1.325550098167256330e+01 2.376529545288665612e-01 1.483085377588177798e+06 5.947243599549697279e+00
1.300134390801849804e+01 2.471519129187382813e-01 1.215730589668174274e+06 6.361491716753168824e+00
1.277083360002098544e+01 2.569879545509805574e-01 9.984939982147878036e+05 6.798139445234849809e+00
1.256143746788482041e+01 2.671616008070253900e-01 8.218407831699013477e+05 7.257720353437709271e+00
1.237096740767483638e+01 2.776697532814846325e-01 6.780494766036306974e+05 7.741585503784385480e+00
1.219756054088124486e+01 2.885067272626132828e-01 5.604869492704555159e+05 8.251578515727777230e+00
1.203931118917186538e+01 2.996837893781196249e-01 4.642400327152163954e+05 8.805223827031795736e+00
1.189252699819787118e+01 3.114665661048489076e-01 3.839914510625256225e+05 9.431481367799870341e+00
1.175727701646575163e+01 3.239507874864998582e-01 3.168483470874031191e+05 1.007502110800936279e+01
1.163375154227928654e+01 3.371165309518155961e-01 2.612927399896843126e+05 1.073631996713524828e+01
1.152198846035583557e+01 3.509432535047257162e-01 2.154871249049456383e+05 1.141586802571952930e+01
1.142165149015713865e+01 3.654247165176377488e-01 1.778192619790617027e+05 1.211416888856400575e+01
1.133204011557863211e+01 3.805227438953805996e-01 1.469158328865549120e+05 1.283174005794562333e+01
1.125257432485341269e+01 3.962365880396089279e-01 1.215507767100232886e+05 1.356911331713116908e+01
1.118257310316190001e+01 4.125402504155610273e-01 1.007728917874545732e+05 1.432683512447533580e+01
1.112120329670776187e+01 4.294181229526550791e-01 8.370666899510743679e+04 1.510546701839440331e+01
1.106789626153471495e+01 4.468520128653610812e-01 6.968924732878353097e+04 1.590558603351549749e+01
1.102177097373314041e+01 4.648270609692072841e-01 5.814487745456876291e+04 1.672778512830995723e+01
1.098230060675952124e+01 4.833333354069993537e-01 4.863532554055360379e+04 1.757267362452762782e+01
1.094884978959028743e+01 5.023531778207050991e-01 4.075483398998450139e+04 1.844087765875782026e+01
1.092079400287007296e+01 5.218649276833994266e-01 3.423809036838253814e+04 1.933304064645149722e+01
1.089764212559013323e+01 5.418616712829208426e-01 2.883463384894426054e+04 2.024982375874865781e+01
1.087886600723715524e+01 5.623270759214489267e-01 2.433190929487255926e+04 2.119190641246423823e+01
1.086401580179560789e+01 5.832463382657306905e-01 2.058169207250246473e+04 2.215998677359560887e+01
1.085269094098446097e+01 6.046065200525070349e-01 1.744358246755346772e+04 2.315478227472495476e+01
1.084438868945721168e+01 6.263941918514071006e-01 1.481414202458757063e+04 2.424807854817980868e+01
1.083913868409720394e+01 6.487926296963264505e-01 1.259182868719988255e+04 2.560819194366079188e+01
1.083675774162931660e+01 6.718369441433773570e-01 1.070961125823681141e+04 2.700583902046852813e+01
1.083725247529745950e+01 6.955046133490774274e-01 9.116052540533559295e+03 2.844205555785393358e+01
1.084037717837711945e+01 7.197730982783253628e-01 7.769191201344235196e+03 2.991790591842609714e+01
1.084602651075548785e+01 7.446252516945741640e-01 6.629270717889107800e+03 3.143448383693845827e+01
1.085391797922219759e+01 7.700262824114153526e-01 5.664005462320703373e+03 3.299291323084233341e+01
1.086387719201393942e+01 7.959596332419327513e-01 4.845825234845529849e+03 3.459434903320843802e+01
1.087572173242661222e+01 8.224075998165808477e-01 4.152218379949040354e+03 3.623997804863380878e+01
1.088928926235101713e+01 8.493489868208149440e-01 3.563096660903891006e+03 3.793101983276821443e+01
1.090425720630820017e+01 8.767469588476339837e-01 3.061960920136707955e+03 3.966872759611201360e+01
1.092054191103224881e+01 9.045914831797826627e-01 2.635312447531295220e+03 4.145438913275519610e+01
1.093797693843869290e+01 9.328615036984909681e-01 2.271565558721655634e+03 4.328932777474598481e+01
1.095633397373953066e+01 9.615228950746446124e-01 1.960866233056126248e+03 4.517490337279605939e+01
1.097547484277641061e+01 9.905696522389935144e-01 1.695189218460208849e+03 4.711251330404942195e+01
1.099527157485287532e+01 1.019963647838599607e+00 1.467601990908743801e+03 4.910359350766157860e+01
1.101555419830118865e+01 1.049696350628170238e+00 1.272362781323032095e+03 5.114961954895659346e+01
1.103618242383737424e+01 1.079738783520868495e+00 1.104676913805013101e+03 5.325210771295060397e+01
1.105707267000067162e+01 1.110066515610123705e+00 9.603324627277150967e+02 5.541261612805221404e+01
1.107806628900001122e+01 1.140662056250136169e+00 8.359379862252685598e+02 5.763274592077252123e+01
1.109906929882829374e+01 1.171495785426164504e+00 7.286417889754234238e+02 6.002769659597090879e+01
1.112001955462661407e+01 1.202570743873190962e+00 6.358735312826380550e+02 6.305158359764890719e+01
1.114089966093229833e+01 1.233877687597499939e+00 5.555802263713430875e+02 6.615891776738376961e+01
1.116165093541414066e+01 1.265376260098152628e+00 4.860388758103056830e+02 6.935200191273833070e+01
1.118225538795175744e+01 1.297046852578073395e+00 4.257294301541525101e+02 7.263320238953954799e+01
1.120256336170858269e+01 1.328860478050219118e+00 3.733731726424255726e+02 7.600495085555596120e+01
1.122255390200169067e+01 1.360791183891775891e+00 3.278692927991220927e+02 7.946974607256966294e+01
1.124212826720737901e+01 1.392807833884431412e+00 2.882500414167340637e+02 8.303015575817838112e+01
1.126123042559996179e+01 1.424889598628350740e+00 2.537361556092846797e+02 8.668881848869959583e+01
1.127978730081113667e+01 1.457005554199311437e+00 2.236183248450472263e+02 9.044844565458754460e+01
1.129772156289298657e+01 1.489126762459537012e+00 1.973015190628737230e+02 9.431182346981154296e+01
1.131499251441262821e+01 1.521242419188254980e+00 1.742830395279258653e+02 9.828181503668537289e+01
1.133154092453846395e+01 1.553307854531065457e+00 1.541211857316976364e+02 1.023613624676776510e+02
1.134728986283420049e+01 1.585310631545461924e+00 1.364417140787827236e+02 1.065534890657753522e+02
1.136218938589974314e+01 1.617221228261316979e+00 1.209171731915193249e+02 1.108613015650172002e+02
1.137620564735969175e+01 1.649012550335812621e+00 1.072735706123381050e+02 1.152879924328561998e+02
1.138925993699911565e+01 1.680670640712065511e+00 9.525521241846273313e+01 1.199121229004978915e+02
1.140123373737602108e+01 1.712054579695923895e+00 8.469708766362828101e+01 1.258952225958378222e+02
1.141213992514805042e+01 1.743104205100843629e+00 7.542285581990583410e+01 1.320434318754647904e+02
1.142185307481710588e+01 1.773745220127346478e+00 6.727271879010578459e+01 1.383613071025034742e+02
1.143026622414932980e+01 1.804011436729945350e+00 6.007428288815948747e+01 1.448535303774488341e+02
1.143743825460628294e+01 1.833844823822236902e+00 5.372060570448626038e+01 1.515249130080137832e+02
1.144336241670030674e+01 1.863262238312323182e+00 4.810578275582465579e+01 1.583803990747307751e+02
1.144790885283783410e+01 1.892243206874574701e+00 4.311876346562502960e+01 1.654250690949497482e+02
1.145113613826721100e+01 1.920772210791480861e+00 3.869400332261304953e+01 1.726641437879478644e+02
1.145299130104544183e+01 1.948826943866773798e+00 3.476402762987568451e+01 1.801029879439410024e+02
1.145345142571792785e+01 1.976406797849728614e+00 3.126308706101102786e+01 1.877471143998644152e+02
1.145250989928793928e+01 2.003502733274107328e+00 2.814223643816286824e+01 1.956021881248694854e+02
1.145014079460273138e+01 2.030062922415807325e+00 2.535782842933437919e+01 2.044545571302537041e+02
1.144610635615977756e+01 2.055757225820130429e+00 2.289586203408580189e+01 2.148243832486196823e+02
1.144024400018953180e+01 2.080484867629699863e+00 2.071468547309897801e+01 2.254803750280501902e+02
1.143240866461357363e+01 2.104247223157169611e+00 1.877643986459827730e+01 2.364304294944584797e+02
1.142258208257981877e+01 2.127041109844164168e+00 1.705008606848097585e+01 2.476826616000388697e+02
1.141073662790718757e+01 2.148908150893502622e+00 1.550449549431703211e+01 2.592454102371589215e+02
1.139681974852502222e+01 2.169827609514010103e+00 1.412088759907467761e+01 2.711272444182114896e+02
1.138082422524415449e+01 2.189819318945010806e+00 1.287738799357642350e+01 2.836592019543103902e+02
1.136269008668347524e+01 2.208530325755463153e+00 1.177155009067445768e+01 2.987471147462746330e+02
1.134193415176483732e+01 2.225630361252410871e+00 1.079570702068147092e+01 3.142513934916226503e+02
1.131829414472628059e+01 2.241117874727999837e+00 9.928587372824999591e+00 3.301835282227747257e+02
1.129166255921928119e+01 2.255041454649814980e+00 9.153987001036981042e+00 3.466470993266930805e+02
1.126208739929959357e+01 2.267010631304963830e+00 8.473390355076084290e+00 3.661215134867503025e+02
1.122882805706293396e+01 2.276485552914792265e+00 7.883594044841544246e+00 3.861333434663541766e+02
1.119165841839727271e+01 2.283221175773113565e+00 7.378475889871353388e+00 4.087469852767830503e+02
1.115003749151973089e+01 2.286315380609168724e+00 6.965167477804097729e+00 4.337589250447668974e+02
