# Radius[km]  Mass[Solar Mass] Lambda Central_pressure[MeV fm-3]
1.882337922837063715e+01 1.686987895605686349e-01 1.344092476964266039e+07 2.168233519105244422e+00
1.791702873113949224e+01 1.781935239777722724e-01 1.023132831442398392e+07 2.359202996572216993e+00
1.716116810020212569e+01 1.881007558884302822e-01 7.851619773776718415e+06 2.562260291251532873e+00
1.652349247061149740e+01 1.984186980664430777e-01 6.069080160390310921e+06 2.778096945189410416e+00
1.598088561009173958e+01 2.091363946684335617e-01 4.721657837591459975e+06 3.007447120937568830e+00
1.551561811014854975e+01 2.202518504332693361e-01 3.696914873793105129e+06 3.251088928032089154e+00
1.511378471094853815e+01 2.317609284456416396e-01 2.909722936034428421e+06 3.509845792240896323e+00
1.476456935253534120e+01 2.436575965029528779e-01 2.302116497907245997e+06 3.784587870920247621e+00
1.445940205290158609e+01 2.559404761443710985e-01 1.829937310881820042e+06 4.076233517784788596e+00
1.419139422452723309e+01 2.686043740929409118e-01 1.461288931533416500e+06 4.385750800399816463e+00
1.395493728824447288e+01 2.816473111062231527e-01 1.171725767963886261e+06 4.714159073740098016e+00
1.374524890665824906e+01 2.950719187263228793e-01 9.431884874409924960e+05 5.062530613221364106e+00
1.355881526455582531e+01 3.088653483436442637e-01 7.621563220765808364e+05 5.432228373242230290e+00
1.339237223109914865e+01 3.230274930618204920e-01 6.180831304522616556e+05 5.824581636582871980e+00
1.324313550631657499e+01 3.375561261714126182e-01 5.028776879258386325e+05 6.240574440767766795e+00
1.310907287617561323e+01 3.524394236593988428e-01 4.105421401486508548e+05 6.681841937499934048e+00
1.298808888726765609e+01 3.676855208617614834e-01 3.361712082731210394e+05 7.150104860767696913e+00
1.287836705924587477e+01 3.833180607580785604e-01 2.759587199778088834e+05 7.679733848757377856e+00
1.277795545620118922e+01 3.996218535599089794e-01 2.264332560040108801e+05 8.272614806342339477e+00
1.268684616673533760e+01 4.166277912935967276e-01 1.858019754275874293e+05 8.884163924803427648e+00
1.260467166170487019e+01 4.343295628937614006e-01 1.525092555487916106e+05 9.514969012242834978e+00
1.253116007396823051e+01 4.526821545439055350e-01 1.253565825370017556e+05 1.016563638519360424e+01
1.246556362460169787e+01 4.716845347272774491e-01 1.031645490956029535e+05 1.083679145139830347e+01
1.240746112101885146e+01 4.912956664572612486e-01 8.506009491189836990e+04 1.152907931093772653e+01
1.235607492903869442e+01 5.114987491155077448e-01 7.027855166695205844e+04 1.224316537628750901e+01
1.231084119709514191e+01 5.322823980577554570e-01 5.817051262304471311e+04 1.297973601189850434e+01
1.227105336495988652e+01 5.536141330197626997e-01 4.825414604876831436e+04 1.373949919391582952e+01
1.223619301434017892e+01 5.754862680759419424e-01 4.011331229817900021e+04 1.452318519067059910e+01
1.220573065692720327e+01 5.978707634242734770e-01 3.341789076997366647e+04 1.533154726459841122e+01
1.217912667857603815e+01 6.207489138002889595e-01 2.790211711145148001e+04 1.616536239625927962e+01
1.215588655128873263e+01 6.441043029679039966e-01 2.334471266346702032e+04 1.702543203115502379e+01
1.213560745048886425e+01 6.679241441048494599e-01 1.957119093144611543e+04 1.791258285006164996e+01
1.211787032726135216e+01 6.922180211288480045e-01 1.643611886009275258e+04 1.896623296235945944e+01
1.210259660464484810e+01 7.171826913465978448e-01 1.381104289027786763e+04 2.023539572202237835e+01
1.208986955599276136e+01 7.428430804219464667e-01 1.161155355732474527e+04 2.154452086245040476e+01
1.207956935822180888e+01 7.691637590696147608e-01 9.771693405057472773e+03 2.289486668709139394e+01
1.207153207146597929e+01 7.961066009753168249e-01 8.232683106836886509e+03 2.428773111984471100e+01
1.206559017632667796e+01 8.236537550217580828e-01 6.944393571167473965e+03 2.572445295259819886e+01
1.206140750263508998e+01 8.517495691502912081e-01 5.865821804828722634e+03 2.720641313204668066e+01
1.205887416631428088e+01 8.803811860664765288e-01 4.962187237108020781e+03 2.873503608702883128e+01
1.205775241923430841e+01 9.095124335919338998e-01 4.204022779622911003e+03 3.031179109765803048e+01
1.205765991935392556e+01 9.390991457947487353e-01 3.567718935869170764e+03 3.193819370756343901e+01
1.205851899140324690e+01 9.691220207835271605e-01 3.031557722049376935e+03 3.361580718059851591e+01
1.206004579190230785e+01 9.995469487016930277e-01 2.580480706388668750e+03 3.534624400341727579e+01
1.206210520979042577e+01 1.030343783626114895e+00 2.199395544022263039e+03 3.713116743536233599e+01
1.206444964551482713e+01 1.061478837713949908e+00 1.877558059154036073e+03 3.897229310715478334e+01
1.206682709493751915e+01 1.092919977975559398e+00 1.605224587856978133e+03 4.116835575902791788e+01
1.206941604949222224e+01 1.124706153119416463e+00 1.374095899737964601e+03 4.370970070686642828e+01
1.207194247366837736e+01 1.156782509407891846e+00 1.177792178018738923e+03 4.633106548958252802e+01
1.207443541728938108e+01 1.189115357884282798e+00 1.011039384821177805e+03 4.903496970766537544e+01
1.207674182157992071e+01 1.221671300063717824e+00 8.690835009385135663e+02 5.182401229676697341e+01
1.207881489066333103e+01 1.254406901277339337e+00 7.481732795294013840e+02 5.470087402574421276e+01
1.208024859957841279e+01 1.287300275998765509e+00 6.448935003182987202e+02 5.766832007335715105e+01
1.208121817563641898e+01 1.320295843428684668e+00 5.567128670641974395e+02 6.072920268610071304e+01
1.208153142628279575e+01 1.353370534331177266e+00 4.812276646748679809e+02 6.388646391972358884e+01
1.208103260648907273e+01 1.386487333111262599e+00 4.165301735781611114e+02 6.714313846707025846e+01
1.207961728595189577e+01 1.419614349344177961e+00 3.609761186825036816e+02 7.050235657496361341e+01
1.207727781370090625e+01 1.452693434005129847e+00 3.132691420859690652e+02 7.416417610832631624e+01
1.207371593684698041e+01 1.485616642884153515e+00 2.722732271769369845e+02 7.868364384983975413e+01
1.206896469321662124e+01 1.518269719323602773e+00 2.370843397445394487e+02 8.334541697288665318e+01
1.206290986998355308e+01 1.550630621353380922e+00 2.067899971623446049e+02 8.815397627537770120e+01
1.205545008230866877e+01 1.582674788187105941e+00 1.806691833482970253e+02 9.311394364300036841e+01
1.204650199806612321e+01 1.614371834555464513e+00 1.580679902481276713e+02 9.823008649167800854e+01
1.203598210449076866e+01 1.645709048317385514e+00 1.384959233454364949e+02 1.035073223499092734e+02
1.202387953759759576e+01 1.676663440013949291e+00 1.215161028911367964e+02 1.089507235853926943e+02
1.201007501331562288e+01 1.707188803759600804e+00 1.067458310826511791e+02 1.145655222804796125e+02
1.199459190747929682e+01 1.737238831899640568e+00 9.390153407464677571e+01 1.211123738669145808e+02
1.197723378589178544e+01 1.766575006008798132e+00 8.276459893140835788e+01 1.284926272143737549e+02
1.195795860456078330e+01 1.795128528272619706e+00 7.310198459692190909e+01 1.361052640699122662e+02
1.193661484956386865e+01 1.822892380320667138e+00 6.468593070862267780e+01 1.439576015393642763e+02
1.191315804158940139e+01 1.849867876769217379e+00 5.732972478278323081e+01 1.520571871237338542e+02
1.188756068226432561e+01 1.876057251413872695e+00 5.088688912251760144e+01 1.604118059736935038e+02
1.185976919792695483e+01 1.901459536486761914e+00 4.522726239118909319e+01 1.690294883725063926e+02
1.182982105686514984e+01 1.925930461057842935e+00 4.026867720345688895e+01 1.797706360572361461e+02
1.179765127163885552e+01 1.949323253828555647e+00 3.593083931260124331e+01 1.908653084091531866e+02
1.176315071584219396e+01 1.971628040441134599e+00 3.212170141587363048e+01 2.023093209206484175e+02
1.172625214687787576e+01 1.992884157752469632e+00 2.876471354274734438e+01 2.141136733349517556e+02
1.168693499331308772e+01 2.013103858895745280e+00 2.579794126403965038e+01 2.262897117464011671e+02
1.164526981743575362e+01 2.032225206968456988e+00 2.317266069776567505e+01 2.407183600415387161e+02
1.160127674373273443e+01 2.050094339733099513e+00 2.086028182248746887e+01 2.561360263666677497e+02
1.155489356185705496e+01 2.066753300096821899e+00 1.881339884324564338e+01 2.720391518242074085e+02
1.150605845102672831e+01 2.082210212888009337e+00 1.699533057206355835e+01 2.884430221626150797e+02
1.145475376247111754e+01 2.096476203053906584e+00 1.537742064971281231e+01 3.067249306987436626e+02
1.140117156767584561e+01 2.109438325525649915e+00 1.394238431943784740e+01 3.272223437886922852e+02
1.134528662378232156e+01 2.121106120889397317e+00 1.266534136373657482e+01 3.483651630098592022e+02
1.128699448835633312e+01 2.131499531716402718e+00 1.152502436931380991e+01 3.701737103937308007e+02
1.122638591626474103e+01 2.140645035651692396e+00 1.050490095556439840e+01 3.954581782511504571e+02
1.116362840564494618e+01 2.148441397866556635e+00 9.595248473268947365e+00 4.224151425067516925e+02
1.109866206652948684e+01 2.154935612342556261e+00 8.781178759625200669e+00 4.502209060685502209e+02
1.103138700880230516e+01 2.160165270238203483e+00 8.048479616546110549e+00 4.812526013877047149e+02
1.096223357824650435e+01 2.164091655304081652e+00 7.393116106849182856e+00 5.153135805161455210e+02
1.089098664599003286e+01 2.166711111923406374e+00 6.804070489413672540e+00 5.504470444829576081e+02
1.081775539914607442e+01 2.168086219997433783e+00 6.273548779552331922e+00 5.901800816475721376e+02
1.074276749316187818e+01 2.168196526745629793e+00 5.796692758890786834e+00 6.328896661697634727e+02
