# Radius[km]  Mass[Solar Mass] Lambda Central_pressure[MeV fm-3]
1.908108409567732977e+01 1.621315190845697418e-01 1.492051927390676923e+07 2.240673751940311043e+00
1.811981302513133585e+01 1.706426518468888431e-01 1.142399694820167683e+07 2.441867301721606154e+00
1.731349576438560689e+01 1.795041120352700859e-01 8.818659988467864692e+06 2.656453906907976670e+00
1.662955438845453315e+01 1.887110435846663936e-01 6.856847499148558825e+06 2.885221233106662009e+00
1.604369524982179840e+01 1.982670648612439301e-01 5.363482138809733093e+06 3.147622270341647877e+00
1.553209641440826339e+01 2.083266487788464905e-01 4.205291475229701027e+06 3.446370369036549253e+00
1.508442333635736787e+01 2.189087998023894477e-01 3.306348464757137001e+06 3.754388245739674890e+00
1.469300653216805230e+01 2.299837856506143641e-01 2.608221690916638821e+06 4.071963530011498911e+00
1.434992715527668317e+01 2.415414549118133636e-01 2.065099833940944634e+06 4.399392776196252797e+00
1.404890052328221373e+01 2.535556518182104369e-01 1.641987742995098233e+06 4.736981740346709380e+00
1.378404121257879389e+01 2.660144429792629106e-01 1.310257782702445751e+06 5.085045665741676935e+00
1.355050666626923572e+01 2.789011850832346928e-01 1.050088362062517786e+06 5.443909577262669330e+00
1.334395940573392814e+01 2.922028041541859245e-01 8.450399219164486276e+05 5.813908584904756260e+00
1.316073656939368774e+01 3.059075193695297012e-01 6.825219447695907438e+05 6.195388196704960215e+00
1.299779545404799919e+01 3.200003780538101528e-01 5.534440948702761671e+05 6.588704641380406457e+00
1.285238307791869694e+01 3.344758138849062701e-01 4.504459290766617632e+05 6.994225200977597368e+00
1.272219314368533993e+01 3.493229703975682110e-01 3.678111123484826530e+05 7.412328553843284595e+00
1.260536573822533590e+01 3.645272361420674456e-01 3.014228534731644904e+05 7.843405128237378676e+00
1.250004457471608710e+01 3.800937448986872469e-01 2.477068471952400287e+05 8.287857466917959215e+00
1.240457969818022832e+01 3.960830377007588110e-01 2.040505321143324545e+05 8.922776584671321842e+00
1.231789476675508155e+01 4.125976136311805820e-01 1.682665796419811086e+05 9.586730865348640052e+00
1.223951984170677676e+01 4.296135729905033451e-01 1.389909761196312611e+05 1.027128681283614142e+01
1.216869238687351995e+01 4.471089651334244630e-01 1.150225087918373029e+05 1.097708367096086057e+01
1.210474769038592058e+01 4.650730281689887669e-01 9.537553653408633545e+04 1.170478051848234102e+01
1.204703163325611825e+01 4.834846889661326141e-01 7.924444528988440288e+04 1.245505688454560023e+01
1.199487786451746096e+01 5.023351141079019921e-01 6.597776307591210934e+04 1.322861338323097158e+01
1.194766715267621571e+01 5.216016368766859257e-01 5.504538832230446860e+04 1.402617236779309273e+01
1.190484427979764703e+01 5.412720256883344350e-01 4.601534967193761258e+04 1.484847860520016738e+01
1.186587653059432768e+01 5.613330588207210425e-01 3.854910153638052725e+04 1.569629997160336288e+01
1.183033480688275318e+01 5.817724808920073931e-01 3.235608646916004000e+04 1.657042816938561103e+01
1.179776285677526992e+01 6.025746253855771561e-01 2.721630463616553607e+04 1.747167946645975789e+01
1.176780612160074213e+01 6.238161990233712650e-01 2.291315035480564984e+04 1.859313891976405486e+01
1.174031899901162213e+01 6.457959402510032865e-01 1.927660905558135710e+04 1.985594779702880075e+01
1.171578919747960335e+01 6.685180856863034426e-01 1.621821679208038222e+04 2.115794004653989901e+01
1.169405204675620702e+01 6.919401966645154500e-01 1.364431649614452726e+04 2.250033147908886733e+01
1.167522012913032725e+01 7.160439833401055498e-01 1.148773526939181465e+04 2.388437563054793600e+01
1.165889903592640131e+01 7.407849895651680283e-01 9.679157439535680169e+03 2.531136493243189634e+01
1.164507880327466793e+01 7.661301136742588724e-01 8.165016456051233945e+03 2.678263191878100713e+01
1.163355473987320821e+01 7.920513992204736287e-01 6.896268372935554908e+03 2.829955047049189787e+01
1.162381623075959425e+01 8.185276887972114945e-01 5.831187100637284857e+03 2.986353709825865721e+01
1.161591743248681396e+01 8.455065898376307176e-01 4.938053110309300791e+03 3.147605226532174072e+01
1.160956453774132591e+01 8.729720994002198031e-01 4.187962288017676656e+03 3.313860175126039564e+01
1.160457228720014378e+01 9.008842900284994570e-01 3.557320580244256689e+03 3.485273805810152226e+01
1.160050010678185473e+01 9.292262875987622461e-01 3.025575869026496093e+03 3.662006186005864805e+01
1.159736383238789514e+01 9.579527076464652291e-01 2.577340607817068303e+03 3.845678567507377466e+01
1.159506373161004689e+01 9.871853129892460554e-01 2.197500599596709890e+03 4.087476818126728517e+01
1.159370964195705866e+01 1.017008622248902316e+00 1.874375309573220875e+03 4.336777764548364189e+01
1.159331582015435735e+01 1.047378369987749913e+00 1.600217914664985301e+03 4.593814205992939748e+01
1.159382022549757885e+01 1.078244952106252930e+00 1.367269878344570088e+03 4.858826165148336429e+01
1.159504834336390289e+01 1.109587867394013605e+00 1.169331540166681862e+03 5.132061112304744910e+01
1.159697182587486530e+01 1.141340362425692367e+00 1.001340547181641796e+03 5.413774196444428100e+01
1.159939836322311457e+01 1.173464813687906005e+00 8.585405452741809995e+02 5.704228483501871949e+01
1.160216869691877051e+01 1.205925147323956947e+00 7.370926601019390318e+02 6.003695202016854182e+01
1.160515085558009396e+01 1.238667026798792481e+00 6.335991248715176880e+02 6.312453996409848855e+01
1.160823103302166714e+01 1.271663233324727305e+00 5.453932742468143715e+02 6.630793188116206238e+01
1.161125295444816530e+01 1.304866768641420594e+00 4.701310512454219293e+02 6.959010044823028807e+01
1.161407982422204554e+01 1.338238355697765947e+00 4.057358652377427575e+02 7.297411058060123423e+01
1.161658732077069445e+01 1.371736127356375290e+00 3.506181897143449646e+02 7.646312229404222194e+01
1.161865178433705026e+01 1.405280941177663223e+00 3.034626781601640459e+02 8.074832641542886336e+01
1.162003603647894323e+01 1.438700536633889415e+00 2.631206938481184920e+02 8.545036057854051137e+01
1.162076574929508688e+01 1.471987753690579881e+00 2.285771794264699110e+02 9.029829295178144832e+01
1.162057247128215209e+01 1.505075181929621531e+00 1.989191629468043345e+02 9.529665057323367705e+01
1.161946655346814694e+01 1.537951954899596130e+00 1.733885460927564850e+02 1.004501009492806958e+02
1.161729906155100345e+01 1.570575311909379046e+00 1.513840893187974928e+02 1.057634564131627286e+02
1.161398490591816035e+01 1.602918387443961201e+00 1.323727460321741773e+02 1.112416786187717150e+02
1.160946734601223440e+01 1.634962801859804360e+00 1.159213107508391829e+02 1.168898831738836748e+02
1.160362935379307991e+01 1.666666327976535467e+00 1.016475164263006832e+02 1.227133444171541612e+02
1.159647434038730829e+01 1.698017474840275209e+00 8.925155630941699769e+01 1.287175003433378038e+02
1.158785069441748838e+01 1.728845522204616625e+00 7.850185191257283179e+01 1.362052741945384753e+02
1.157755518897791447e+01 1.758901656004529190e+00 6.920786185976609772e+01 1.441141699990083112e+02
1.156543611131548133e+01 1.788155868560846740e+00 6.115412326842036350e+01 1.522684688996581031e+02
1.155141361276421641e+01 1.816620308890284141e+00 5.414090707250159795e+01 1.606757854461170041e+02
1.153542121543687138e+01 1.844284674862243678e+00 4.802080808057515071e+01 1.693439704579182887e+02
1.151738608312432710e+01 1.871136372207789167e+00 4.266086796734376918e+01 1.782811183556580374e+02
1.149726798868648636e+01 1.897199063656859863e+00 3.795313924112740267e+01 1.874955747196293885e+02
1.147509471814760040e+01 1.922321009170070871e+00 3.382920019278777346e+01 1.988313375235726141e+02
1.145071628565388089e+01 1.946316032220174463e+00 3.022481384916866176e+01 2.106936825736816843e+02
1.142401847228418177e+01 1.969179365265443016e+00 2.706159511476854007e+01 2.229241012810018958e+02
1.139496067944977931e+01 1.990949153132382410e+00 2.427443881057529396e+01 2.355340145084869903e+02
1.136346521114930752e+01 2.011624107064250655e+00 2.180986531210989909e+01 2.485351974941140156e+02
1.132962595443859399e+01 2.031211094797822803e+00 1.962973936692479171e+01 2.633882334882575265e+02
1.129338317917003920e+01 2.049484109444529967e+00 1.770697561148390164e+01 2.798282959300344714e+02
1.125473186834867612e+01 2.066481296394655054e+00 1.600718078373072473e+01 2.967784728459868120e+02
1.121351135594413861e+01 2.082181007406408657e+00 1.449836980611998882e+01 3.142545924470884984e+02
1.116978209410749301e+01 2.096672009669314996e+00 1.315216577281626620e+01 3.330332300671684607e+02
1.112363160673602813e+01 2.109793684294545724e+00 1.195775206636131216e+01 3.548162429036564731e+02
1.107504905048391564e+01 2.121545652223748579e+00 1.089566054025556952e+01 3.772751552495524834e+02
1.102389438747039208e+01 2.131927428926562396e+00 9.947054442024933607e+00 4.004309394171008876e+02
1.097024148858410797e+01 2.140986096671796179e+00 9.097558129866298415e+00 4.266687730903375950e+02
1.091429459320321804e+01 2.148629327593988947e+00 8.339437885823294039e+00 4.551922937745949866e+02
1.085594765652517601e+01 2.154888894645439201e+00 7.661911206422891141e+00 4.846008634546820417e+02
1.079517204938743546e+01 2.159788792603529739e+00 7.051322655460201538e+00 5.171989651210371903e+02
1.073219275745159607e+01 2.163246658046641624e+00 6.505726864154700806e+00 5.530451557527326258e+02
1.066692616153289030e+01 2.165280739543951505e+00 6.016149351922725153e+00 5.900036086249161826e+02
1.059945794827606136e+01 2.165888125626131533e+00 5.576609632786170501e+00 6.324878292280632195e+02
