# Radius[km]  Mass[Solar Mass] Lambda Central_pressure[MeV fm-3]
1.878114248346376058e+01 1.714771749112181942e-01 1.300162055881235749e+07 2.135342790737458696e+00
1.790863619164476717e+01 1.810744081285698970e-01 9.929612700641512871e+06 2.323382097853692763e+00
1.717904418985040849e+01 1.910548977292843842e-01 7.648276102016515099e+06 2.523649512050536003e+00
1.656200344606960329e+01 2.014150424432101516e-01 5.932244506495355628e+06 2.736793860718077287e+00
1.603494716534209985e+01 2.121616826920383891e-01 4.630390420320193283e+06 2.963555159829593499e+00
1.557833377856659673e+01 2.233836797062438151e-01 3.628603498171600979e+06 3.235275330680165595e+00
1.517439470112260835e+01 2.353900718248747581e-01 2.840234552969062701e+06 3.533772217767773949e+00
1.481943211045133779e+01 2.481900403658738041e-01 2.223483411989576183e+06 3.841694294853391867e+00
1.450980495558638239e+01 2.617490478169093304e-01 1.743822531483155442e+06 4.159339167072431565e+00
1.424068079309709667e+01 2.760443136137021303e-01 1.371348611403821502e+06 4.487013836592775640e+00
1.400752456272298119e+01 2.910552774743226934e-01 1.081882437577694654e+06 4.825034999330848784e+00
1.380612961262414196e+01 3.067614768240626288e-01 8.567354596228698501e+05 5.173729351036624458e+00
1.363253998326540284e+01 3.231414122017386981e-01 6.811991192836894188e+05 5.533433903043408542e+00
1.348324587027023469e+01 3.401751745083642642e-01 5.437225876584277721e+05 5.904496307987590953e+00
1.335535716485610891e+01 3.578548647707672781e-01 4.358525904382131994e+05 6.287275195813203155e+00
1.324589930511720048e+01 3.761571959747140315e-01 3.507964599537131144e+05 6.682140520385894789e+00
1.315267800287401023e+01 3.950721657357624261e-01 2.834417625067552435e+05 7.089473917051517304e+00
1.307356727419107401e+01 4.145831030548830509e-01 2.299291419759158744e+05 7.509669071484768033e+00
1.300676408479271373e+01 4.346804143344377702e-01 1.872249585453674663e+05 7.943132100184382871e+00
1.295070990935343858e+01 4.553499090160164631e-01 1.530022049540299631e+05 8.390281942982687369e+00
1.290389716776945050e+01 4.765794100519677445e-01 1.254499703213590255e+05 8.851550767948875631e+00
1.286523985965564165e+01 4.983563733277541208e-01 1.031920368890354875e+05 9.327384389077213456e+00
1.283371449729465930e+01 5.206727959823502783e-01 8.515672494300267135e+04 9.818242697164047073e+00
1.280828033046883085e+01 5.435131393795009647e-01 7.047111464297995553e+04 1.032460010428994757e+01
1.278809132599154985e+01 5.668637430323602011e-01 5.848360479517733620e+04 1.084694600233657091e+01
1.277253098297191158e+01 5.907267073581277117e-01 4.866029865269629954e+04 1.138578523598144621e+01
1.276079039198064891e+01 6.150746127070114699e-01 4.058286842471361888e+04 1.194163859062785882e+01
1.275247192040227162e+01 6.399372679243262585e-01 3.391856065595251857e+04 1.263393110439450773e+01
1.274744803770298418e+01 6.655428825901922307e-01 2.836776782254270802e+04 1.350396025217646212e+01
1.274582832692366985e+01 6.919129809132745779e-01 2.374427729073414594e+04 1.440146100980219224e+01
1.274719543443468339e+01 7.190188633379551719e-01 1.989420974759722958e+04 1.532730080723005806e+01
1.275124737696311783e+01 7.468370070067674726e-01 1.668608854763355339e+04 1.628237446395749899e+01
1.275811881647054946e+01 7.753192284207357510e-01 1.401753875539707769e+04 1.726760505385962574e+01
1.276723230709043833e+01 8.044577021009270412e-01 1.179311763301535393e+04 1.828394479733546163e+01
1.277825374859018837e+01 8.342102269101636658e-01 9.937486294298007124e+03 1.933237598162416759e+01
1.279091688191771325e+01 8.645595155011212007e-01 8.385804743625540141e+03 2.041391191018064433e+01
1.280512272290842724e+01 8.954660534977302300e-01 7.088586824935534423e+03 2.152959788202830538e+01
1.282052393437626669e+01 9.269103649137774292e-01 6.002692543238264989e+03 2.268051220203524565e+01
1.283680274955806233e+01 9.588555958195232876e-01 5.090913392930749978e+03 2.386776722309049248e+01
1.285364134982888373e+01 9.912904979441760078e-01 4.324269802758175501e+03 2.509251042118746611e+01
1.287108683339309323e+01 1.024171831952553458e+00 3.679209183732478323e+03 2.635592550445371529e+01
1.288868772405178120e+01 1.057479408638575258e+00 3.135375379830559268e+03 2.765923355719889898e+01
1.290632764355490281e+01 1.091185319923287267e+00 2.675626594872469468e+03 2.900369422008657949e+01
1.292377817207990987e+01 1.125266066845792334e+00 2.286625327020041368e+03 3.039060690757059646e+01
1.294094939764872265e+01 1.159684048271922840e+00 1.957065143612915563e+03 3.182131206377258437e+01
1.295770410529652672e+01 1.194409503365025271e+00 1.677410936199331900e+03 3.335310323123266585e+01
1.297380484747762708e+01 1.229423563093789085e+00 1.439593893417158142e+03 3.545159517004496763e+01
1.298933155405241457e+01 1.264693695379095706e+00 1.237216788711204117e+03 3.761634805189619613e+01
1.300402766965611434e+01 1.300187642016475076e+00 1.064690967208751317e+03 3.984945409953510165e+01
1.301804194575623086e+01 1.335862892273411040e+00 9.175684768813988512e+02 4.215307159870054932e+01
1.303114179469959133e+01 1.371681253820170365e+00 7.919815974238811123e+02 4.452942698409400890e+01
1.304320115171559813e+01 1.407610487797354093e+00 6.844125204193289846e+02 4.698081699121723176e+01
1.305421437043503552e+01 1.443623429913065692e+00 5.923261262835180787e+02 4.950961087615577583e+01
1.306400331529466108e+01 1.479669881393832709e+00 5.133006104598451884e+02 5.211825270545281086e+01
1.307248576832555820e+01 1.515724182317595092e+00 4.453783790766876791e+02 5.480926371828734034e+01
1.307957991471451820e+01 1.551757291812924766e+00 3.869138857081372294e+02 5.758524476323909624e+01
1.308518584350123248e+01 1.587732772282360649e+00 3.365219804451577943e+02 6.044887881199547053e+01
1.308921746175452760e+01 1.623615914798000492e+00 2.930253205672460695e+02 6.340293355243023399e+01
1.309160950868180073e+01 1.659380782498334650e+00 2.554230044700560427e+02 6.645026406355992776e+01
1.309227668094830399e+01 1.694883999386573192e+00 2.229614720638996914e+02 7.030484910321237635e+01
1.309091255277109234e+01 1.729842926933215841e+00 1.950490494176013954e+02 7.458558860610325780e+01
1.308741023381277557e+01 1.764206947221803823e+00 1.709669841004886450e+02 7.900149462124961985e+01
1.308163004820274722e+01 1.797961301568681280e+00 1.501544996221684869e+02 8.355683509955643729e+01
1.307352498814289099e+01 1.831096762484526463e+00 1.320762812288985515e+02 8.825601275463458251e+01
1.306306936670451257e+01 1.863594183005415683e+00 1.163691351076003002e+02 9.310356931800104974e+01
1.305016029816054868e+01 1.895460870417107646e+00 1.026711367237299726e+02 9.810418992863991150e+01
1.303481508395631394e+01 1.926670440920372096e+00 9.070578071004034371e+01 1.032627076611655212e+02
1.301696285823587473e+01 1.957217217070501114e+00 8.022052467065444148e+01 1.085841081969643795e+02
1.299663989757323002e+01 1.986994724755100306e+00 7.105351842743866086e+01 1.149776744155976758e+02
1.297358662557933506e+01 2.015555155104597151e+00 6.310103275194280315e+01 1.221655292145965603e+02
1.294754201487329937e+01 2.042840948844186322e+00 5.617810095054727526e+01 1.295803441598794450e+02
1.291845807626514286e+01 2.068899094005276051e+00 5.012195195551561966e+01 1.372292856327159711e+02
1.288621572259590309e+01 2.093721034719066676e+00 4.480205159997407804e+01 1.451197462964846352e+02
1.285078561835919864e+01 2.117333258001911744e+00 4.011892432641121786e+01 1.532593522416447911e+02
1.281221396577972271e+01 2.139767756263793785e+00 3.597522409677406330e+01 1.624810821143807118e+02
1.277047864234110897e+01 2.160651008385149563e+00 3.234602756668709134e+01 1.731173146830593339e+02
1.272548859010915656e+01 2.179940103141409846e+00 2.915876496328052525e+01 1.840893916680768143e+02
1.267703726993404167e+01 2.197653162537116955e+00 2.634334844471335657e+01 1.954079175265334527e+02
1.262506328470307970e+01 2.213856584489693358e+00 2.384615655545240998e+01 2.070838315566198560e+02
1.256971730432692524e+01 2.228488862530640269e+00 2.163091240840114082e+01 2.210926121138370775e+02
1.251110599373586041e+01 2.241353013205000799e+00 1.967476024841724325e+01 2.359765177993278087e+02
1.244898130721800200e+01 2.252469653948762307e+00 1.793997161244161731e+01 2.513303903255688567e+02
1.238326802044861985e+01 2.261886986498191643e+00 1.639285210460734632e+01 2.677010490984007447e+02
1.231428818087792898e+01 2.269538641089087427e+00 1.501842789349360174e+01 2.869004277592700873e+02
1.224197799142589815e+01 2.275339348951306739e+00 1.379716774737704554e+01 3.067060365000849060e+02
1.216616678085842906e+01 2.279368181097595869e+00 1.270435243723454555e+01 3.278252472668143014e+02
1.208719144525513300e+01 2.281563213582004757e+00 1.173098138088592535e+01 3.522131539796644120e+02
1.200505540891763623e+01 2.281925803837729472e+00 1.086217121541423758e+01 3.773711211667300063e+02
