# Radius[km]  Mass[Solar Mass] Lambda Central_pressure[MeV fm-3]
1.918622364942587311e+01 1.629465497622511194e-01 1.507111015272079222e+07 2.221718304686907342e+00
1.838212158321741185e+01 1.697317492324545152e-01 1.211001974747122824e+07 2.399778100071857434e+00
1.768871232515198955e+01 1.766343148251119100e-01 9.801155665340589359e+06 2.589729943750677332e+00
1.708532202466820138e+01 1.836327269361502645e-01 7.984390420283710584e+06 2.792523628691661930e+00
1.655604004047809852e+01 1.907042875242619673e-01 6.544523768929994665e+06 3.009157883169548242e+00
1.608864566082314695e+01 1.978187844955174579e-01 5.396091526156496257e+06 3.240762566950139423e+00
1.566185574998878316e+01 2.051952076008581594e-01 4.450161728820079938e+06 3.522839580043311436e+00
1.525699686832522417e+01 2.132915310821670574e-01 3.640069438709015958e+06 3.820559333198142227e+00
1.488016883133826518e+01 2.221217924753661199e-01 2.961071430387682281e+06 4.126302851313361053e+00
1.453430155015720437e+01 2.316743253892729615e-01 2.399981242831507232e+06 4.440286380719478565e+00
1.422026475698544523e+01 2.419329499071252165e-01 1.941800527981381398e+06 4.762731995743661351e+00
1.393781835660980661e+01 2.528770874617579656e-01 1.570844616018024040e+06 5.093867755778537010e+00
1.368523946737978214e+01 2.644939237817921507e-01 1.271573065167268505e+06 5.433927866584034483e+00
1.346067404018415026e+01 2.767641107346571760e-01 1.030847449214158463e+06 5.783152845936527342e+00
1.326203203806138298e+01 2.896712122640694442e-01 8.377825411615391495e+05 6.141789693742239820e+00
1.308707774345112895e+01 3.031977875472298134e-01 6.825790436075704638e+05 6.510092066735435168e+00
1.293356311882810594e+01 3.173341684339359703e-01 5.577509500024616718e+05 6.888320457884741010e+00
1.279949934566872294e+01 3.320593849292106658e-01 4.572008734789368464e+05 7.276742380634712681e+00
1.268279182056047638e+01 3.473692744316441150e-01 3.759823516918827081e+05 7.675632558112776671e+00
1.258179786900828923e+01 3.632438452439717969e-01 3.101754499402563670e+05 8.085273117435422208e+00
1.249484252885582691e+01 3.796750088002945334e-01 2.567261042579288187e+05 8.505953789251170960e+00
1.242033737997408593e+01 3.966551986026262688e-01 2.131590852325814485e+05 8.937972112661265456e+00
1.235712289804122932e+01 4.141673974941303404e-01 1.775506436998620047e+05 9.381633645663242760e+00
1.230383984246020113e+01 4.322099903041409230e-01 1.483220878144108574e+05 9.837252181265979445e+00
1.225951669455577431e+01 4.507674358814761639e-01 1.242532728230602661e+05 1.030514996942932804e+01
1.222318785911504513e+01 4.698346827120828961e-01 1.043924011620515957e+05 1.078565794498510577e+01
1.219397574544428053e+01 4.894002287013132779e-01 8.792940644490849809e+04 1.127911596170070929e+01
1.217104782984248068e+01 5.094561038053004864e-01 7.425347405724874989e+04 1.178587303265100061e+01
1.215377355809952853e+01 5.299946590808004565e-01 6.285035611489979783e+04 1.230628757706831777e+01
1.214153550630563672e+01 5.510077869451710519e-01 5.331937691418980103e+04 1.284072767384527225e+01
1.213374140250861721e+01 5.724837941562256338e-01 4.533467406189611211e+04 1.338957132186966348e+01
1.212988097801185106e+01 5.944138188182589433e-01 3.862354802578246745e+04 1.395320670737564406e+01
1.212951639981651830e+01 6.167952149317761368e-01 3.296688115772434685e+04 1.453203247850010094e+01
1.213224610150962057e+01 6.396105425397761168e-01 2.819568639248280670e+04 1.512645802723857003e+01
1.213762899942546269e+01 6.628588191550421893e-01 2.415391236040927834e+04 1.573690377900013360e+01
1.214541454504080242e+01 6.865239336216831800e-01 2.072552578279641239e+04 1.636380148996595096e+01
1.215533315987983087e+01 7.106923358917230926e-01 1.780345235234283609e+04 1.722692593513059123e+01
1.216764078586680675e+01 7.355538305002641275e-01 1.529355776674244407e+04 1.817956547090586383e+01
1.218228863393410499e+01 7.610949830507300895e-01 1.314228162178575622e+04 1.915787933848488933e+01
1.219921654044027548e+01 7.872902207260267238e-01 1.130082976947573297e+04 2.016255947987600194e+01
1.221824199532274946e+01 8.141179640395878048e-01 9.724151221461530440e+03 2.119431648543034186e+01
1.223921550886356080e+01 8.415528348778843482e-01 8.373375528293932803e+03 2.225388009642848886e+01
1.226201560310436456e+01 8.695857799226941465e-01 7.218169009571452079e+03 2.334199972121187372e+01
1.228640840037884452e+01 8.981773276172935194e-01 6.228897169370266965e+03 2.445944496522450251e+01
1.231223665495137709e+01 9.273197198773909244e-01 5.380671316213211867e+03 2.560700617533965229e+01
1.233940638911587939e+01 9.569923688755760383e-01 4.653637521728544016e+03 2.678549499885648544e+01
1.236760922794209350e+01 9.871667224699733900e-01 4.028675058810075370e+03 2.799574495756217374e+01
1.239679692391900012e+01 1.017821943325005973e+00 3.492031631166365514e+03 2.923861203726525915e+01
1.242678291196285301e+01 1.048939111307088723e+00 3.030371096126345037e+03 3.051497529321755309e+01
1.245743753258786057e+01 1.080505469169579902e+00 2.632960271335708057e+03 3.182573747185237067e+01
1.248859528584515388e+01 1.112487447221114145e+00 2.290365381469795466e+03 3.317182564927927046e+01
1.252018370984353446e+01 1.144872913434716866e+00 1.994597659603149850e+03 3.455419188698662225e+01
1.255199730689465376e+01 1.177634155805504346e+00 1.739112461377172167e+03 3.597381390521574929e+01
1.258395200989235363e+01 1.210753912600142757e+00 1.518041381068569308e+03 3.743169577448316687e+01
1.261594149910303564e+01 1.244206540092641644e+00 1.326549219206443240e+03 3.892886862573968898e+01
1.264789379822204296e+01 1.277969585373114558e+00 1.160564560369790570e+03 4.046639137966897692e+01
1.267957278242606378e+01 1.312026273511825991e+00 1.016372666302349216e+03 4.204535149564108565e+01
1.271095436855345362e+01 1.346349280580308783e+00 8.910823245099159067e+02 4.366686574085093042e+01
1.274200201886564976e+01 1.380920269014337842e+00 7.819704165178607127e+02 4.533208098018567966e+01
1.277255006863476083e+01 1.415710562079433910e+00 6.869047263558489931e+02 4.704217498737943259e+01
1.280256224608910287e+01 1.450701121856007969e+00 6.040447717709674862e+02 4.879835727802930023e+01
1.283192647958471966e+01 1.485866230648164921e+00 5.316856658810952467e+02 5.060186996506180890e+01
1.286058889195999022e+01 1.521186122048478584e+00 4.683960212778275150e+02 5.245398863725483096e+01
1.288845457585707699e+01 1.556633421620784663e+00 4.130338214953454781e+02 5.441362352660669188e+01
1.291531736151015686e+01 1.592034802114285386e+00 3.647198537594971413e+02 5.713521474241539977e+01
1.294099290476419206e+01 1.627253413931619486e+00 3.225786292989197364e+02 5.993015483078798411e+01
1.296533474992780199e+01 1.662281400633620621e+00 2.857500252780487813e+02 6.280042059745306204e+01
1.298834193944520976e+01 1.697090621863189819e+00 2.534915317665864904e+02 6.574804212449856777e+01
1.300994546519368811e+01 1.731663617484974216e+00 2.252039742662745425e+02 6.877510420620849629e+01
1.303011221146930865e+01 1.765984801343152721e+00 2.003069578025327928e+02 7.188374782359676374e+01
1.304874232404192469e+01 1.800045614176519093e+00 1.783883042547383013e+02 7.507617165868040843e+01
1.306585814982754457e+01 1.833815337988629501e+00 1.590550100947957901e+02 7.835463364956399346e+01
1.308142502739021396e+01 1.867296526455771266e+00 1.419736919198763871e+02 8.172145258743428542e+01
1.309537891204753457e+01 1.900452832645626255e+00 1.268611344268077659e+02 8.517900975659553353e+01
1.310769590101304338e+01 1.933287397988151080e+00 1.134698031110505667e+02 8.872975061870450020e+01
1.311835806165681007e+01 1.965773076214041959e+00 1.015855505432561188e+02 9.237618654239703631e+01
1.312735319028649172e+01 1.997899812834051048e+00 9.103062469658078726e+01 9.612089657952944322e+01
1.313461113238739841e+01 2.029649253524537400e+00 8.163457884439233680e+01 9.996652928929053417e+01
1.314015698787018138e+01 2.061010947236022517e+00 7.326968040583723507e+01 1.039158046114753233e+02
1.314396246198610285e+01 2.091937765300723839e+00 6.582127315434112802e+01 1.082412529960492549e+02
1.314524452030705248e+01 2.121520141075643906e+00 5.932308384988771621e+01 1.136923886256142140e+02
1.314323258738959233e+01 2.149356087043545749e+00 5.367516565993067701e+01 1.192904363448048315e+02
1.313749717453072918e+01 2.175410250910500221e+00 4.873381121009430217e+01 1.250393555418192193e+02
1.312804989969521685e+01 2.199802214617405660e+00 4.437963827918944304e+01 1.309432123132615970e+02
1.311469117251736627e+01 2.222545727258487869e+00 4.051778286985235411e+01 1.370061823400115486e+02
1.309748675348537361e+01 2.243733104579564763e+00 3.707508225307787342e+01 1.433623807068454141e+02
1.307588024314116559e+01 2.261851517026347569e+00 3.415863840773820925e+01 1.511330817791764787e+02
1.304797029572699785e+01 2.275724182687469899e+00 3.175739048519301022e+01 1.591132089252599826e+02
1.301310319937650917e+01 2.285436108673371436e+00 2.976277397145905113e+01 1.685750540766014183e+02
1.297101467135668429e+01 2.291074826809582188e+00 2.810319151326408971e+01 1.784558793644348214e+02
1.292181410369150285e+01 2.292873741553268285e+00 2.671474491006550167e+01 1.900186212463691220e+02
