# Radius[km]  Mass[Solar Mass] Lambda Central_pressure[MeV fm-3]
1.886834520854152331e+01 1.688378499019510814e-01 1.352374226451493613e+07 2.162932584879626141e+00
1.800136791478131926e+01 1.777549978703644173e-01 1.044124015400067531e+07 2.347995826265465880e+00
1.727077168139688723e+01 1.870194101465093295e-01 8.121773936167582870e+06 2.544714602400422354e+00
1.664833702912693525e+01 1.966333567755841616e-01 6.357881451846894808e+06 2.753687774052032911e+00
1.611332156681972450e+01 2.066032556382991214e-01 5.005786592817374505e+06 2.975635224110945387e+00
1.565000848692969804e+01 2.169269324721076753e-01 3.961773024155880325e+06 3.211111555053315136e+00
1.524582394698707333e+01 2.276150071384069051e-01 3.149955679137547966e+06 3.460864360376156412e+00
1.489132373399568543e+01 2.386710782272855602e-01 2.514813198704672977e+06 3.725625777207604017e+00
1.457884013142504109e+01 2.501024680682732426e-01 2.015519023488204228e+06 4.005972353662162533e+00
1.430202922019511824e+01 2.619159074788910968e-01 1.621152751295587281e+06 4.303010122476749189e+00
1.405589448445547518e+01 2.741229810840227765e-01 1.308271231196527602e+06 4.616971537816755955e+00
1.383639598648358415e+01 2.867311596381257321e-01 1.058898025110687828e+06 4.949507236732253901e+00
1.364001735098375789e+01 2.997463926424102643e-01 8.595582303247858072e+05 5.300359562304712391e+00
1.346386291508006927e+01 3.131883180981608339e-01 6.994806398941667285e+05 5.671866895544658504e+00
1.330548246862829131e+01 3.270693048302854011e-01 5.705675891992291436e+05 6.063316625259666637e+00
1.316296138845026853e+01 3.413890805713278298e-01 4.665250906953811063e+05 6.477393373320037284e+00
1.303458407408633590e+01 3.561648612023711746e-01 3.822817177662951872e+05 6.913478234708871462e+00
1.291887394912652276e+01 3.714045352185764703e-01 3.139328498369291192e+05 7.373996988197283109e+00
1.281445636392770204e+01 3.871217736139953569e-01 2.582659768791702518e+05 7.858911897358074938e+00
1.272026691116560393e+01 4.033273704732326936e-01 2.128788833759489062e+05 8.370250856063924161e+00
1.263541908702180194e+01 4.200252151369076037e-01 1.758158341564553266e+05 8.908531451443266747e+00
1.255889433611972983e+01 4.372396143754309072e-01 1.454150232670691912e+05 9.475453966051837540e+00
1.249009416175950804e+01 4.549669259355788031e-01 1.205120355387930322e+05 1.007200876043899562e+01
1.242829002789351911e+01 4.732284576813217125e-01 9.997702384738140972e+04 1.069970179055340687e+01
1.237290669775464025e+01 4.920258946929974009e-01 8.308648466915101744e+04 1.135984841729983863e+01
1.232341190468776126e+01 5.113656412487238567e-01 6.915618345425621374e+04 1.205396577057400087e+01
1.227926078137185506e+01 5.313812005139941785e-01 5.758548936746765685e+04 1.286878590856783688e+01
1.224039870644406136e+01 5.522839312987318783e-01 4.791826949416589196e+04 1.372871838419393065e+01
1.220693792326457228e+01 5.740426403352828499e-01 3.986114781577502436e+04 1.461472578544729650e+01
1.217894972846607082e+01 5.966312841982888138e-01 3.318329395230524824e+04 1.552759875783293886e+01
1.215584099729068157e+01 6.200329835872158135e-01 2.764158136461616959e+04 1.646815192085772850e+01
1.213764956227600145e+01 6.442109563769675695e-01 2.305243482012956156e+04 1.743722459497146815e+01
1.212396894747896070e+01 6.691281086339325723e-01 1.925552040737019706e+04 1.843568155055050184e+01
1.211436223217699570e+01 6.947775282343803260e-01 1.610777215007107952e+04 1.946441377959191499e+01
1.210855117673803427e+01 7.211149101610594414e-01 1.349803466059494713e+04 2.052433929080715203e+01
1.210603360521800376e+01 7.481082023730586394e-01 1.133238703854608684e+04 2.161640392882448936e+01
1.210667992934880210e+01 7.757581040523924276e-01 9.531661355492471557e+03 2.274158221823142156e+01
1.210999548500907075e+01 8.040099585131790239e-01 8.031873598223507543e+03 2.390087823321018945e+01
1.211558181528478073e+01 8.328500342960273306e-01 6.781179532494433261e+03 2.509532649354236256e+01
1.212327006576552790e+01 8.622491330087478367e-01 5.736110509067708335e+03 2.632599288778222757e+01
1.213282256668204973e+01 8.921908012468963145e-01 4.861273619401215001e+03 2.759397562442260110e+01
1.214374094840241725e+01 9.226379778845023028e-01 4.127138557297349507e+03 2.890040621190207659e+01
1.215598728454314958e+01 9.535584502629049775e-01 3.510611774040212367e+03 3.024645046832798201e+01
1.216920993549628704e+01 9.849478641697191339e-01 2.991200059133700051e+03 3.163330956181626874e+01
1.218314015440742892e+01 1.016767561810677289e+00 2.552795243082901379e+03 3.306222108237667356e+01
1.219771857025440198e+01 1.048992788182313340e+00 2.182296988710325877e+03 3.468702700253216165e+01
1.221271757689189208e+01 1.081606785816132676e+00 1.868669177536703046e+03 3.671811418643135028e+01
1.222802718178383685e+01 1.114596655565962102e+00 1.602369486473047800e+03 3.881078812134157374e+01
1.224361492411426156e+01 1.147921605103522813e+00 1.376342343415552023e+03 4.096691624453001168e+01
1.225935087126026524e+01 1.181543213938947456e+00 1.184149453266845512e+03 4.318842261781197323e+01
1.227487545953222003e+01 1.215439509172454358e+00 1.020245862899541635e+03 4.547728964452392120e+01
1.229031347992335732e+01 1.249567845681981870e+00 8.804277007653137161e+02 4.783555983855872995e+01
1.230532712057621048e+01 1.283897603759098782e+00 7.608823523863295577e+02 5.026533764704166174e+01
1.231995613732018136e+01 1.318394443358858137e+00 6.585861580840576153e+02 5.276879132827363605e+01
1.233398434509698660e+01 1.353036822381182391e+00 5.708527697941223096e+02 5.534815488661770644e+01
1.234731898090087832e+01 1.387774909258262968e+00 4.954915598364133302e+02 5.800573006605510074e+01
1.235983780564662560e+01 1.422592310095486035e+00 4.306663220924911570e+02 6.074388840419025826e+01
1.237151826964091228e+01 1.457448340883475968e+00 3.748074519107157130e+02 6.356507334853723279e+01
1.238205927547517504e+01 1.492334424196390730e+00 3.265701219107095881e+02 6.647180243697657431e+01
1.239157921046718513e+01 1.527188908977255011e+00 2.849083995099999242e+02 6.946666954432780017e+01
1.239982560967378333e+01 1.561849028087056501e+00 2.490064612135427353e+02 7.336287642962156497e+01
1.240646926061316435e+01 1.596044048662961234e+00 2.181140945289228910e+02 7.747549713699791596e+01
1.241135462422368363e+01 1.629760967752989620e+00 1.914745726456622208e+02 8.171282098342005895e+01
1.241435988776975918e+01 1.662982653150144374e+00 1.684118227798375642e+02 8.607862922517068682e+01
1.241544763097233783e+01 1.695696336878828481e+00 1.483983044115098835e+02 9.057681777401899126e+01
1.241451006220116859e+01 1.727894055524018979e+00 1.309761889887153643e+02 9.521140067381131189e+01
1.241152623246080111e+01 1.759564968258319650e+00 1.157738065253148534e+02 9.998651368247932680e+01
1.240643128003651618e+01 1.790687793393465066e+00 1.024836422848441373e+02 1.049064179626622746e+02
1.239918477085960902e+01 1.821270749355525576e+00 9.082827758011785590e+01 1.099755038842359625e+02
1.238979881379527548e+01 1.851234180858482015e+00 8.061236317129677786e+01 1.160101523321362151e+02
1.237806675292035230e+01 1.880283155806759199e+00 7.170414543018026166e+01 1.227401217771234911e+02
1.236386844268258223e+01 1.908401949834680256e+00 6.390471513148978033e+01 1.296741577712012656e+02
1.234715349125433725e+01 1.935594783092897231e+00 5.706270636532188689e+01 1.368184480328722827e+02
1.232784494661040853e+01 1.961850517090429458e+00 5.103687583342782830e+01 1.441793679050219623e+02
1.230603473923429902e+01 1.987233369499023405e+00 4.570911499982878468e+01 1.517634860440761315e+02
1.228160583708248588e+01 2.011713146783868034e+00 4.099105857893031413e+01 1.595775702816664818e+02
1.225459805864284135e+01 2.035225767944384145e+00 3.681359107734809299e+01 1.690639760083981855e+02
1.222495641628332486e+01 2.057531233108595092e+00 3.313351325798723934e+01 1.791860068733993785e+02
1.219272410041046228e+01 2.078715838678202310e+00 2.987341430835074263e+01 1.896149585833305196e+02
1.215774960922049885e+01 2.098747906266690499e+00 2.697835295972393865e+01 2.003601376110042338e+02
1.212003064924832785e+01 2.117664225210801110e+00 2.439897252526094817e+01 2.114311326206760668e+02
1.207960965981619772e+01 2.135477115020079086e+00 2.209644432667506209e+01 2.238311929195747041e+02
1.203663300115955082e+01 2.152038173588584957e+00 2.004808328940645268e+01 2.379052498552885879e+02
1.199098800152298239e+01 2.167293135232814194e+00 1.822385824233938223e+01 2.524060612144886306e+02
1.194267474387052097e+01 2.181333819320282252e+00 1.659134715287401463e+01 2.673465670711560733e+02
1.189164406663046769e+01 2.194160530011222576e+00 1.512823993383483057e+01 2.827558445423538274e+02
1.183807216684341768e+01 2.205722688233843432e+00 1.381553542583617222e+01 3.014698165936771943e+02
1.178202538538559452e+01 2.215959461308514289e+00 1.263940329022365106e+01 3.207512348611396646e+02
1.172346398531893819e+01 2.224917455206631534e+00 1.158379892383629262e+01 3.406173054839473480e+02
1.166227411866696606e+01 2.232607618271962746e+00 1.063137816094087462e+01 3.618828263539409136e+02
1.159876287512477155e+01 2.238998227304787036e+00 9.775537300942637842e+00 3.864699786074148733e+02
1.153303213606237065e+01 2.244098605796390533e+00 9.004513244853457721e+00 4.118026640097895665e+02
1.146486622879614536e+01 2.247931687136086154e+00 8.307372417837296297e+00 4.379034886632438770e+02
1.139445288660209776e+01 2.250484277350721651e+00 7.677607457209856712e+00 4.687211568018465755e+02
1.132205787145559306e+01 2.251783935818179483e+00 7.108987090803449149e+00 5.007065290261563746e+02
1.124747657641702503e+01 2.251838936814279268e+00 6.592940515160487180e+00 5.338097870065492998e+02
