# Radius[km]  Mass[Solar Mass] Lambda Central_pressure[MeV fm-3]
1.928582530455252453e+01 1.582388384642380852e-01 1.599112731877096742e+07 2.285440450524505618e+00
1.829492205665022908e+01 1.660382994767858056e-01 1.232178897204235010e+07 2.497582662577879642e+00
1.746443464583214578e+01 1.740457813456253722e-01 9.583705124542981386e+06 2.725589546180362976e+00
1.674311253016808365e+01 1.824913549523910217e-01 7.477285243554526940e+06 3.009363931035792916e+00
1.610151600994139187e+01 1.916709943059035359e-01 5.811962707366504706e+06 3.303613005216821996e+00
1.553691076150055217e+01 2.015681121564801836e-01 4.514821500297348946e+06 3.607010265486399359e+00
1.504295008196884176e+01 2.121569543007935654e-01 3.510467718405561056e+06 3.919840128401975043e+00
1.461290677276817718e+01 2.234049535547611987e-01 2.736965434904196300e+06 4.242395853014729212e+00
1.423898040645262419e+01 2.352898293498628390e-01 2.141053032004466280e+06 4.574979815782176829e+00
1.391406859295681997e+01 2.477883240018785849e-01 1.681859167732566595e+06 4.917903794027773223e+00
1.363184405373990238e+01 2.608759401359783126e-01 1.327047683039863594e+06 5.271489258213292395e+00
1.338667862007571507e+01 2.745307815099214399e-01 1.051698959514691029e+06 5.636067673297903369e+00
1.317330995353444578e+01 2.887426730623428583e-01 8.373094343635614496e+05 6.011980809466499487e+00
1.298775562954164720e+01 3.034832542105606046e-01 6.696879517553624464e+05 6.399581062518546304e+00
1.282609615322060925e+01 3.187451483989928724e-01 5.380356097084591165e+05 6.799231784217810493e+00
1.268508553016813423e+01 3.345123183191269778e-01 4.340761905902731232e+05 7.211307622912604742e+00
1.256210909768048012e+01 3.507660551410323735e-01 3.518202057825142401e+05 7.636194874745971362e+00
1.245468435430709597e+01 3.674999277082993676e-01 2.860379743192677852e+05 8.074291845784886235e+00
1.236076467172905424e+01 3.846999058363326784e-01 2.334752727887267247e+05 8.526009225408095915e+00
1.227860196459195663e+01 4.023569800346040171e-01 1.912483289199830324e+05 8.991770471302508838e+00
1.220660700329112203e+01 4.204600471876009382e-01 1.571525552787336637e+05 9.472012206429166525e+00
1.214338144235360062e+01 4.391136812271679846e-01 1.293969362047737959e+05 1.013717727987559947e+01
1.208806592210730813e+01 4.585481846456655464e-01 1.065600426613751624e+05 1.086119132841844959e+01
1.204043877818474328e+01 4.787301482791200824e-01 8.782368391355355561e+04 1.160771493035660207e+01
1.200014172902564624e+01 4.996382549667459649e-01 7.247448523029869830e+04 1.237744790635662895e+01
1.196656035235955962e+01 5.212518657402472888e-01 5.989679993708223628e+04 1.317111183446766987e+01
1.193916066155658839e+01 5.435387981028613202e-01 4.958761703191309061e+04 1.398945072655723365e+01
1.191737090237036689e+01 5.664854758823252290e-01 4.113138067277304071e+04 1.483323172577718907e+01
1.190062961685673848e+01 5.900662323581039592e-01 3.418277726690857526e+04 1.570324582571406502e+01
1.188837381463912024e+01 6.142577266400786051e-01 2.846810000088548986e+04 1.660030861189755669e+01
1.188013795491053060e+01 6.390413064285508371e-01 2.375628215602671480e+04 1.752526102636267424e+01
1.187542982111725820e+01 6.644046180172480387e-01 1.986347494954413560e+04 1.847897015598188020e+01
1.187385247727437587e+01 6.903098226469731591e-01 1.664513138749411155e+04 1.946233004530657951e+01
1.187491412872962471e+01 7.167535135190418183e-01 1.397493538484416422e+04 2.047626253467972290e+01
1.187834270681808313e+01 7.437053718658903634e-01 1.175631202350281819e+04 2.152171812440527177e+01
1.188371402774714269e+01 7.711499295953292421e-01 9.909033480304235127e+03 2.259967686578470847e+01
1.189072705926326812e+01 7.990611059450978271e-01 8.367970368358035557e+03 2.371114927985578547e+01
1.189891743134973723e+01 8.274241661702184114e-01 7.078274753792661613e+03 2.485717730469473352e+01
1.190834790797036646e+01 8.562178350463626186e-01 5.998726886318972902e+03 2.610103850187867636e+01
1.191858755595797348e+01 8.854803044173450433e-01 5.090447703684283624e+03 2.773267296514146807e+01
1.192974436311491360e+01 9.152142065569486284e-01 4.325967842782077241e+03 2.941503484611989805e+01
1.194160214362633532e+01 9.453887159002517526e-01 3.681647242716184792e+03 3.114970125719177929e+01
1.195401294099468181e+01 9.759745783112806494e-01 3.137914171178292690e+03 3.293829834306427529e+01
1.196681947401150481e+01 1.006944546804974028e+00 2.678880403865319749e+03 3.478250280518612669e+01
1.197987404363314923e+01 1.038257920035445592e+00 2.290208182082609255e+03 3.668404347355356521e+01
1.199290305065357032e+01 1.069900086596013544e+00 1.960939744626353104e+03 3.864470292738394619e+01
1.200582917851181541e+01 1.101826119123163528e+00 1.681398353067148037e+03 4.066631916617560449e+01
1.201852616122431883e+01 1.134018685789699887e+00 1.444030124179887025e+03 4.275078733272123799e+01
1.203081076702071606e+01 1.166439459290486313e+00 1.241686448401661210e+03 4.490006148968944899e+01
1.204255688519098477e+01 1.199066888489223270e+00 1.069228151939676764e+03 4.711615645144004105e+01
1.205365350007730463e+01 1.231865911198469110e+00 9.220304773547385366e+02 4.940114967279068736e+01
1.206396115902015254e+01 1.264805094602128532e+00 7.961349419672548038e+02 5.175718319650476928e+01
1.207336124113213671e+01 1.297855317493439520e+00 6.882821831363396541e+02 5.458075640496313952e+01
1.208183531451486203e+01 1.330943843913084734e+00 5.959452053061855850e+02 5.782148500550984238e+01
1.208929278510587579e+01 1.364037040797027256e+00 5.167507421544715953e+02 6.116296766410344077e+01
1.209564530786046888e+01 1.397106678473935881e+00 4.486730818931416138e+02 6.460833681837267761e+01
1.210088341074544083e+01 1.430110977123200122e+00 3.901679500473411508e+02 6.816082229324460684e+01
1.210490982251486436e+01 1.463028816243251873e+00 3.397391987228854191e+02 7.182375432870962584e+01
1.210753532562450907e+01 1.495847971763533790e+00 2.961805733068177346e+02 7.560056670172001247e+01
1.210887272855852892e+01 1.528511516692568684e+00 2.585455303379156362e+02 7.949479994514771874e+01
1.210874896368289022e+01 1.560993389511318830e+00 2.259836127013959981e+02 8.351010466681964317e+01
1.210712284286020690e+01 1.593288292258518757e+00 1.977330806242364929e+02 8.765024497174135831e+01
1.210394520973433075e+01 1.625348785735685198e+00 1.731976935703120262e+02 9.191910199071745069e+01
1.209917072022787643e+01 1.657088982954368683e+00 1.519228175497057123e+02 9.742068529512239650e+01
1.209268643498300655e+01 1.688433800887745750e+00 1.334456093669957397e+02 1.031581993761640490e+02
1.208458099213567039e+01 1.719334113708196110e+00 1.173916682068540354e+02 1.090740924262648974e+02
1.207477746104303584e+01 1.749774954660452631e+00 1.034132016387030575e+02 1.151739102368868686e+02
1.206321628703867610e+01 1.779742801776560190e+00 9.122275948122050693e+01 1.214633710178159163e+02
1.204986911400765237e+01 1.809215455207675127e+00 8.056172823073630695e+01 1.279483707576379743e+02
1.203471801376214856e+01 1.838172329589509824e+00 7.123322816198530916e+01 1.346349887508706615e+02
1.201769650588998140e+01 1.866588154124657395e+00 6.305300612848247255e+01 1.415294932969340778e+02
1.199881662177870112e+01 1.894480925165014984e+00 5.586349597660081656e+01 1.493308845398112510e+02
1.197811702334140094e+01 1.921651272090945106e+00 4.957405980472601215e+01 1.584443802091172415e+02
1.195553681965506421e+01 1.948076342597364841e+00 4.406058940635858079e+01 1.678412139128148510e+02
1.193108942165342867e+01 1.973749736946204703e+00 3.921549931911352616e+01 1.775301946134192406e+02
1.190474456508247769e+01 1.998664965837037233e+00 3.494984181144936741e+01 1.875204051435623569e+02
1.187647537879874271e+01 2.022810447460836603e+00 3.118598533122506922e+01 1.978212107205987991e+02
1.184628628630004243e+01 2.046221120259636983e+00 2.785444711927218719e+01 2.084422677259292414e+02
1.181413719781962968e+01 2.068836814886088504e+00 2.490779939729324255e+01 2.201275351745133264e+02
1.178015738715509819e+01 2.090486833858339111e+00 2.231233543194625213e+01 2.339581338975011420e+02
1.174423130355543066e+01 2.111092456867057710e+00 2.002305025541754446e+01 2.482187251062296696e+02
1.170633148588025030e+01 2.130676545146964251e+00 1.799810746251280591e+01 2.629226772413203435e+02
1.166640702296362875e+01 2.149242184187317051e+00 1.620201796717485720e+01 2.780837743674134117e+02
1.162437426008055752e+01 2.166781667574118497e+00 1.460544696557770727e+01 2.937162290948927534e+02
1.158037326987057014e+01 2.183275074348633549e+00 1.318555981976457581e+01 3.118180159521098176e+02
1.153443810248250934e+01 2.198394353468953621e+00 1.193519235155081404e+01 3.317760741067058348e+02
1.148627417368907722e+01 2.212086208238665641e+00 1.083032644228586250e+01 3.523546270936897713e+02
1.143576087154328036e+01 2.224396513644775641e+00 9.848286742342372335e+00 3.735729660602286799e+02
1.138291753694510433e+01 2.235295984306795880e+00 8.975577061820031233e+00 3.972679251965245726e+02
1.132788077366069679e+01 2.244309430201579136e+00 8.213201816719868376e+00 4.236571139095574949e+02
1.127010042268064716e+01 2.251338561149710316e+00 7.544209243019847300e+00 4.508667409187679027e+02
1.120964476828482859e+01 2.256247052937339515e+00 6.959927578797066694e+00 4.821314986497981181e+02
1.114624923587367711e+01 2.258540117645246426e+00 6.458897587289726516e+00 5.151843516295737118e+02
