# Radius[km]  Mass[Solar Mass] Lambda Central_pressure[MeV fm-3]
1.886068597387247436e+01 1.647074861545497204e-01 1.404151170052897371e+07 2.220070104002572542e+00
1.794351906699786880e+01 1.736972996723861462e-01 1.075521892318896763e+07 2.403452946728684925e+00
1.717465720742484336e+01 1.831447471649185199e-01 8.299769889530234039e+06 2.597040829793372474e+00
1.652040393875407887e+01 1.931278192461481358e-01 6.431078403501573950e+06 2.836387552324480588e+00
1.595747087211164761e+01 2.037576598844791920e-01 4.996651171762649901e+06 3.088374908230741678e+00
1.547410257501852371e+01 2.150103352800654399e-01 3.895156095456171781e+06 3.347832127446339623e+00
1.505892059893063362e+01 2.268678897741780165e-01 3.050327561122755986e+06 3.614980645120910552e+00
1.470212965737861310e+01 2.393105555769300674e-01 2.397414350313148461e+06 3.890048460583829470e+00
1.439530025663250079e+01 2.523165306113717143e-01 1.893830505225551315e+06 4.173270331931481891e+00
1.413112512668227438e+01 2.658685150164651900e-01 1.503032760274210246e+06 4.464887976382798662e+00
1.390366246315093868e+01 2.799648369174428941e-01 1.198476952044969657e+06 4.765150276574120269e+00
1.370719233817819216e+01 2.945727375161402706e-01 9.600449283050382510e+05 5.074313492969388051e+00
1.353798281708620799e+01 3.096950869300773568e-01 7.726348859235311393e+05 5.392641482567031019e+00
1.339181537046071035e+01 3.253140560586417207e-01 6.244589382743572351e+05 5.720405924090123939e+00
1.326557761794124524e+01 3.414170078200469138e-01 5.068018334201323451e+05 6.057886549852043778e+00
1.315688429688131933e+01 3.579955642671119875e-01 4.130272853073962033e+05 6.405371384495491149e+00
1.306294151003973880e+01 3.750485837521955190e-01 3.378182953786053695e+05 6.763156990808687041e+00
1.298210457003209406e+01 3.925587489302648225e-01 2.773389939266079455e+05 7.131548722828451758e+00
1.291275191056670657e+01 4.105193550120476154e-01 2.284965626404304639e+05 7.510860986446250998e+00
1.285298381627946895e+01 4.289261410652139284e-01 1.888407614463747886e+05 7.901417507739552093e+00
1.280211726052926480e+01 4.477627529615691993e-01 1.565903259525461472e+05 8.303551609257617372e+00
1.275849817828802557e+01 4.670325854839714741e-01 1.302059780641807592e+05 8.717606494497390557e+00
1.272163969695662011e+01 4.867190983929133852e-01 1.085914496434273751e+05 9.143935540812359264e+00
1.269009337993832887e+01 5.068265832541520854e-01 9.077422383652666758e+04 9.582902601004324339e+00
1.266370167647485268e+01 5.273327741828343074e-01 7.608438206839539635e+04 1.003488231385555451e+01
1.264167427349567241e+01 5.482425345261168204e-01 6.392382060049146821e+04 1.055372086340116589e+01
1.262327990850731219e+01 5.696869086134090931e-01 5.376703165375689423e+04 1.125897923322735927e+01
1.260866692845633530e+01 5.917019562962260171e-01 4.527469301899870334e+04 1.198514414259566863e+01
1.259749778369230278e+01 6.142622551707792589e-01 3.817767407265119255e+04 1.273283534082680823e+01
1.258945881812908141e+01 6.373567333286912495e-01 3.223759721949525192e+04 1.350269094896769673e+01
1.258428595143394269e+01 6.609574047731520130e-01 2.726429566788146258e+04 1.429536800439931099e+01
1.258150041061876045e+01 6.850544484492853137e-01 2.309535445501017603e+04 1.511154302158865370e+01
1.258101488153190495e+01 7.096235068037792804e-01 1.959529792604846079e+04 1.595191256946377578e+01
1.258245736825977268e+01 7.346525689988929742e-01 1.665323434691980219e+04 1.681719386590414800e+01
1.258566147842168270e+01 7.601016809482982195e-01 1.417810186518928640e+04 1.770812538985410356e+01
1.258990575954927493e+01 7.860089029460167742e-01 1.208504795092232598e+04 1.862546751158167169e+01
1.259551604298781236e+01 8.122954915642696117e-01 1.032026749277878480e+04 1.957000314162062793e+01
1.260199215523659610e+01 8.389774427497800335e-01 8.825861906596839617e+03 2.054253839894968436e+01
1.260909842333947140e+01 8.660340504174931509e-01 7.559154984388055709e+03 2.154390329897898582e+01
1.261676462773295881e+01 8.934395830450040377e-01 6.483675501084381722e+03 2.257495246193126093e+01
1.262474122183572156e+01 9.211839797993109924e-01 5.568907199045427660e+03 2.363656584222199797e+01
1.263292515365694513e+01 9.492336376166091716e-01 4.790383766239784563e+03 2.472964947946119096e+01
1.264104357545773283e+01 9.775844338692740720e-01 4.126067986583442689e+03 2.585513627171776818e+01
1.264883681096425327e+01 1.006269003249374627e+00 3.557318842519075588e+03 2.741665201551696640e+01
1.265663244961520562e+01 1.035204149510789762e+00 3.071662576739237920e+03 2.904111273112053127e+01
1.266410609313618707e+01 1.064392401234898644e+00 2.655315868736358880e+03 3.071372863869118675e+01
1.267121297389310364e+01 1.093822400507813652e+00 2.298340831651868484e+03 3.243592724120954074e+01
1.267800177495249159e+01 1.123437451196553027e+00 1.992214315993501486e+03 3.420917835827201259e+01
1.268402919694060138e+01 1.153265099178044650e+00 1.728655361565032308e+03 3.603499538051633522e+01
1.268948219295762136e+01 1.183239240979137685e+00 1.501898734623597875e+03 3.791493656123270739e+01
1.269420158221546124e+01 1.213342374503529886e+00 1.306521732402737598e+03 3.985060634626352538e+01
1.269797618588115640e+01 1.243589904112604838e+00 1.137673848090609681e+03 4.184365674332622120e+01
1.270086430783933551e+01 1.273916296825136740e+00 9.918554802594084094e+02 4.389578873192805020e+01
1.270270714610843399e+01 1.304309938899817389e+00 8.656201525410183422e+02 4.600875371507613920e+01
1.270344959789219352e+01 1.334746975873322805e+00 7.562444316370092565e+02 4.818435501402177579e+01
1.270299891701413486e+01 1.365232084784697042e+00 6.613106223086118689e+02 5.051323783063525497e+01
1.270131520917700563e+01 1.395646335307148878e+00 5.789931569035564962e+02 5.351568792650373041e+01
1.269838476146281536e+01 1.425959828441382582e+00 5.075837836943731531e+02 5.660714205881906480e+01
1.269410634328612630e+01 1.456148669542395746e+00 4.455443489292356389e+02 5.979023864562360302e+01
1.268840735324750035e+01 1.486203514504418788e+00 3.915000750084532797e+02 6.306769431770177903e+01
1.268131010340075093e+01 1.516068089066179070e+00 3.444434688558016546e+02 6.644230623710353711e+01
1.267275936937478065e+01 1.545762446519353350e+00 3.033833646351699258e+02 6.991695448439692484e+01
1.266265451090810501e+01 1.575240452189363705e+00 2.674649556296466244e+02 7.349460451668849714e+01
1.265103067203371268e+01 1.604475515390235030e+00 2.360460877874524783e+02 7.717830969850827216e+01
1.263775941325770091e+01 1.633487733788548946e+00 2.085009623644841383e+02 8.097121390772028349e+01
1.262284602595334704e+01 1.662222617617546749e+00 1.843265075759758815e+02 8.503665162875923045e+01
1.260631680477731820e+01 1.690572664991858431e+00 1.631710201576845520e+02 9.011983678607779780e+01
1.258809370442323328e+01 1.718498113123764881e+00 1.446095847478941323e+02 9.535370687822047842e+01
1.256815945938413215e+01 1.745962310627335645e+00 1.283336346134852590e+02 1.007427287795740511e+02
1.254655663323166692e+01 1.772933163736150730e+00 1.140134938513103435e+02 1.062915017796658219e+02
1.252316713530084158e+01 1.799456320641129370e+00 1.013956045182464578e+02 1.120047615084513097e+02
1.249798379160005268e+01 1.825479789369696570e+00 9.026635714527742493e+01 1.178873839779636228e+02
1.247101145465284944e+01 1.851015150494598416e+00 8.042814023627640552e+01 1.239443897437712110e+02
1.244221974267062869e+01 1.876012108700874315e+00 7.173454604781441901e+01 1.302908909082869116e+02
1.241165892140499238e+01 1.900416038605846403e+00 6.404609904144784593e+01 1.382418481486757003e+02
1.237936574043370364e+01 1.924145406985585449e+00 5.725960869666926101e+01 1.464285019919774129e+02
1.234526214769000241e+01 1.947146679561758686e+00 5.125998172390966801e+01 1.548578393816434016e+02
1.230941446961367092e+01 1.969482888203218485e+00 4.593811163386954632e+01 1.635370543806944283e+02
1.227170367323360090e+01 1.991121943103000058e+00 4.121301003439028676e+01 1.724735543115313590e+02
1.223219694807848512e+01 2.012056386568380262e+00 3.700793301133796120e+01 1.816749660777544761e+02
1.219080734605757677e+01 2.032266020040804477e+00 3.326808079229652293e+01 1.917900425163869613e+02
1.214777660964802308e+01 2.051361578058327861e+00 2.997411885387145958e+01 2.035870653662925633e+02
1.210272009190508768e+01 2.069136351100222981e+00 2.707935068983712412e+01 2.157337968268901705e+02
1.205534700761474731e+01 2.085606509163832278e+00 2.452163268970428689e+01 2.282406035910265416e+02
1.200552412369299482e+01 2.100793354098347443e+00 2.224978847914219315e+01 2.411181596597399732e+02
1.195348488851645286e+01 2.114452441768887692e+00 2.025134420451959372e+01 2.563781159039672843e+02
1.189892576761219445e+01 2.125960028240990951e+00 1.852018097323885826e+01 2.723760755538986018e+02
1.184122336797722497e+01 2.135312539418507516e+00 1.701010156561194719e+01 2.893854683949789433e+02
1.178049499277234169e+01 2.142228182147302817e+00 1.570583568919439799e+01 3.087677763399036053e+02
1.171622655389180245e+01 2.146563181653313723e+00 1.457831689307190004e+01 3.293410718241099175e+02
1.164862245698376952e+01 2.148075642450102407e+00 1.361816860984972877e+01 3.524514125757322631e+02
