# Radius[km]  Mass[Solar Mass] Lambda Central_pressure[MeV fm-3]
1.938386785312012250e+01 1.538519684735606963e-01 1.690452844124287367e+07 2.349137713643153713e+00
1.831849113534600093e+01 1.616591323636433764e-01 1.290533996927369200e+07 2.560836358389622092e+00
1.742318375096293437e+01 1.698744060658055610e-01 9.922669190442528576e+06 2.785240514911178966e+00
1.666404613093547482e+01 1.784981757112262257e-01 7.679658552064867690e+06 3.024162325281935626e+00
1.601567248143992472e+01 1.875219803588716871e-01 5.976788768804647960e+06 3.277302521455651707e+00
1.545798425650927044e+01 1.969463977866084126e-01 4.676474735806263983e+06 3.546144096717074312e+00
1.497511587267763566e+01 2.067667372272738724e-01 3.678194530146169942e+06 3.831027683819916874e+00
1.455490103308794403e+01 2.169852415028918069e-01 2.906271933196195401e+06 4.132828885021412546e+00
1.418727748632840147e+01 2.275917459558774447e-01 2.305856945903884247e+06 4.452893788562096944e+00
1.386452831705198818e+01 2.385862217827139087e-01 1.837655436501481803e+06 4.791329378027435304e+00
1.357988517998899525e+01 2.499598921043689470e-01 1.470474862908265786e+06 5.150213194281639595e+00
1.332790560051115847e+01 2.617091011897830777e-01 1.181405509990849067e+06 5.530001343461997898e+00
1.310410375289868590e+01 2.738299212340243871e-01 9.522870491985608824e+05 5.931711101438188471e+00
1.290478620059209014e+01 2.863095844449182747e-01 7.708546017809201730e+05 6.357153907045196561e+00
1.272674814892400619e+01 2.991313673695726871e-01 6.260978908438342623e+05 6.807804736578707328e+00
1.256716701117899859e+01 3.122950503258001831e-01 5.103488506943587563e+05 7.284822274788480989e+00
1.242376324552326317e+01 3.257697850774990966e-01 4.174539681877135299e+05 7.789998007701989025e+00
1.229442742499631436e+01 3.395437782454674980e-01 3.427191732737147831e+05 8.325274290080750816e+00
1.217745298338872750e+01 3.535830894698295257e-01 2.823452314005090739e+05 8.892750576026204001e+00
1.207135200536104946e+01 3.678458817423433946e-01 2.334565605878633796e+05 9.494688427051364954e+00
1.197298546871512137e+01 3.826851381109647177e-01 1.929415303920941369e+05 1.021354233737646844e+01
1.188201468371345904e+01 3.984673239091932606e-01 1.588846060795914382e+05 1.095565051434538084e+01
1.179942315209436643e+01 4.151847006258796990e-01 1.305480910652031307e+05 1.172032187600360054e+01
1.172554096930834788e+01 4.328186521145149235e-01 1.071598119190103898e+05 1.250824243730033380e+01
1.166038744072924160e+01 4.513310817963228083e-01 8.795275377425873012e+04 1.332011907090134173e+01
1.160372930232544597e+01 4.707005794747861072e-01 7.224045468482676370e+04 1.415668014135047770e+01
1.155527219594626054e+01 4.908976426007303773e-01 5.939079570600723673e+04 1.501867615851254278e+01
1.151436873174203157e+01 5.118977286145737216e-01 4.890270252618184895e+04 1.590688045088340274e+01
1.148059745683714183e+01 5.336906772885987582e-01 4.033688638241629815e+04 1.682208985937149848e+01
1.145339925362752354e+01 5.562287283556401896e-01 3.334574371556707047e+04 1.776512545217340033e+01
1.143212163184089647e+01 5.795017294642900163e-01 2.762584513737778616e+04 1.873683326138437621e+01
1.141633315183660358e+01 6.034817425279803693e-01 2.293732215426974653e+04 1.973808504200504288e+01
1.140546330177262213e+01 6.281496609200644121e-01 1.909012573208411413e+04 2.076977905402507929e+01
1.139897161504884160e+01 6.534838107573643917e-01 1.592515131503411249e+04 2.183284086828542314e+01
1.139646008410897515e+01 6.794576097951287030e-01 1.331553063974894758e+04 2.292822419684209478e+01
1.139743841408109581e+01 7.060510513223144935e-01 1.115869851664228372e+04 2.405691174857651760e+01
1.140151024921031286e+01 7.332395533264749465e-01 9.373024596965888122e+03 2.521991611082008333e+01
1.140828243338904358e+01 7.610030641777841831e-01 7.889626029436597491e+03 2.641828065778356915e+01
1.141740920688988048e+01 7.893192414069691853e-01 6.654071066001049985e+03 2.765308048660676477e+01
1.142854155739425970e+01 8.181685510616971690e-01 5.623823561521506235e+03 2.892542338186789763e+01
1.144139406769024525e+01 8.475256912606816684e-01 4.762644138029070746e+03 3.036470451905870505e+01
1.145578087408238410e+01 8.773999802346592602e-01 4.040275769042021238e+03 3.214487018436813059e+01
1.147152835454637021e+01 9.077724508912137225e-01 3.433528323415952400e+03 3.397916031283605065e+01
1.148842071723830927e+01 9.386124853453902128e-01 2.922821098005869317e+03 3.586922051395221445e+01
1.150627273226543501e+01 9.698864045742946471e-01 2.492748392366829648e+03 3.781674643060041774e+01
1.152484988372381203e+01 1.001574358028594736e+00 2.129307540525582226e+03 3.982348526028248870e+01
1.154401199160412439e+01 1.033630303373350046e+00 1.822200926129762138e+03 4.189123732259361788e+01
1.156353469955334567e+01 1.066037541543765510e+00 1.561890076203689887e+03 4.402185767435576480e+01
1.158326796170100614e+01 1.098764606414360578e+00 1.340830585464300839e+03 4.621725777385763223e+01
1.160302437098961192e+01 1.131776963290978655e+00 1.152978813934370692e+03 4.847940719569457002e+01
1.162265978056696802e+01 1.165043677012767454e+00 9.929584834300568446e+02 5.081033539774684726e+01
1.164205347010461722e+01 1.198545691377119082e+00 8.564031885337324184e+02 5.321213354188122935e+01
1.166107302404071078e+01 1.232245682098005446e+00 7.397199718241460005e+02 5.568695637000964638e+01
1.167953789046712387e+01 1.266112973555114873e+00 6.398329904303769808e+02 5.823702413718790893e+01
1.169737745678069452e+01 1.300121899455055408e+00 5.541546963330152948e+02 6.086462460348844417e+01
1.171445791032065209e+01 1.334234774068616680e+00 4.806448140378287235e+02 6.373942882032802260e+01
1.173028827142507247e+01 1.368042223591166229e+00 4.179698774565488293e+02 6.728780889798552778e+01
1.174442767390721798e+01 1.401356866423119296e+00 3.645563269825616999e+02 7.094407453400880570e+01
1.175667049471725889e+01 1.434176278125197213e+00 3.188011863691452845e+02 7.471150589947561116e+01
1.176691503551209728e+01 1.466499772628134801e+00 2.794170879860930086e+02 7.859348289634966989e+01
1.177504368703591808e+01 1.498315774587295035e+00 2.454290404264572203e+02 8.259348818971531614e+01
1.178100010159345423e+01 1.529627300766501996e+00 2.159890260748732658e+02 8.671511033220545528e+01
1.178474446795208230e+01 1.560430944811368681e+00 1.904014279853596463e+02 9.096204698342452843e+01
1.178621037748161093e+01 1.590724558814860856e+00 1.680957164903146008e+02 9.533810822725574496e+01
1.178537453124530288e+01 1.620460548296784209e+00 1.486404647020172831e+02 1.007642778497614842e+02
1.178224865504477314e+01 1.649607001649143978e+00 1.316460952030295175e+02 1.064819282050324887e+02
1.177686139020164369e+01 1.678160507046881023e+00 1.167628003781954078e+02 1.123734189854040011e+02
1.176920522546752146e+01 1.706109938100980106e+00 1.037118629710127635e+02 1.184440356650695492e+02
1.175932131823182125e+01 1.733477073106866051e+00 9.222437933977272451e+01 1.246992244186889991e+02
1.174711754342796333e+01 1.760230942619142924e+00 8.210759940290756731e+01 1.311445970073537808e+02
1.173259598087362399e+01 1.786365498105752181e+00 7.318656354468920711e+01 1.377859358131050556e+02
1.171600140677867330e+01 1.811936393962852332e+00 6.528185260167708748e+01 1.456860464352460269e+02
1.169718213197329248e+01 1.836870922550017049e+00 5.829464547082943682e+01 1.542604056594994972e+02
1.167635911153023720e+01 1.861213077131851135e+00 5.210216226858536004e+01 1.630954611767915026e+02
1.165359270021225946e+01 1.884970519157960878e+00 4.660689909259376407e+01 1.721991392420673321e+02
1.162883478884516997e+01 1.908112147954154514e+00 4.172486541768540746e+01 1.815796071014913480e+02
1.160219865812332429e+01 1.930656367762394243e+00 3.738416651436506299e+01 1.912452803195854472e+02
1.157369490545856650e+01 1.952600672870727916e+00 3.351696148239821582e+01 2.012048303291430216e+02
1.154335239690568393e+01 1.973806649807991587e+00 3.008411173753298939e+01 2.134717951146934638e+02
1.151111810964331994e+01 1.994132979841717113e+00 2.704607600161341097e+01 2.261964832430615218e+02
1.147693633539425306e+01 2.013566301207103226e+00 2.435100728589161889e+01 2.393080549785165374e+02
1.144079007970229611e+01 2.032129328778567334e+00 2.194957619300671325e+01 2.528182731968097983e+02
1.140262577281275469e+01 2.049815173249506906e+00 1.980918631981836953e+01 2.667392584141912266e+02
1.136250510530634905e+01 2.066575752606673255e+00 1.789962691694170971e+01 2.826264607055342140e+02
1.132047181412087689e+01 2.082146565230682533e+00 1.621210821643804323e+01 3.000928086904817178e+02
1.127627550353435737e+01 2.096456997925670862e+00 1.471551740731355906e+01 3.180902065245791164e+02
1.122979491866417767e+01 2.109539702797524452e+00 1.338208892084422175e+01 3.366348003388054053e+02
1.118107794164062518e+01 2.121377512128313825e+00 1.219406877696165914e+01 3.576496719654391541e+02
1.113012989171354228e+01 2.131710773452648144e+00 1.114276833251669174e+01 3.804744849951036940e+02
1.107668844932885044e+01 2.140530515654970767e+00 1.020787565323574775e+01 4.039932675670405615e+02
1.102073908145995240e+01 2.147843222957908527e+00 9.375288500160509741e+00 4.302071427842775506e+02
1.096244111174161695e+01 2.153449939692405390e+00 8.640050695478239007e+00 4.586971188147505245e+02
1.090138924568521794e+01 2.157338381664745341e+00 7.986455140617128023e+00 4.886950258151692310e+02
1.083780142871695240e+01 2.159383978251441238e+00 7.409506289341762475e+00 5.227473052398418076e+02
1.077149936322354051e+01 2.159536108032099833e+00 6.899588367495667285e+00 5.587966348047624479e+02
