# Radius[km]  Mass[Solar Mass] Lambda Central_pressure[MeV fm-3]
1.876459013198108039e+01 1.728880335263513757e-01 1.279541642847174220e+07 2.118926073822817724e+00
1.797603062143293684e+01 1.816657670367053112e-01 1.001544097461576387e+07 2.291656859447102068e+00
1.730848321412920043e+01 1.906818305071670827e-01 7.903368332401125692e+06 2.475398137749334371e+00
1.673780976657373643e+01 1.999152094648958544e-01 6.284370747431964613e+06 2.670977349065115636e+00
1.624578206403954894e+01 2.093344726133497535e-01 5.031446903025787324e+06 2.879267769011419453e+00
1.581732310084954563e+01 2.189287398989661071e-01 4.053661988703965675e+06 3.101211491672525078e+00
1.544220977210635226e+01 2.286502192924818599e-01 3.286167290414488409e+06 3.338012161808094014e+00
1.510744163027253428e+01 2.386145141447122697e-01 2.674215129724432714e+06 3.623883547028594609e+00
1.480131175824173617e+01 2.491410874334387404e-01 2.171946900703451131e+06 3.930124595144199873e+00
1.452352121556543807e+01 2.602236259434821397e-01 1.762985035173396813e+06 4.245296215890580704e+00
1.427248527003195555e+01 2.718544293587821237e-01 1.431870378497661091e+06 4.569658841786510273e+00
1.404663980609359086e+01 2.840031515706173404e-01 1.164631958125968929e+06 4.903480500059378855e+00
1.384371715183942264e+01 2.966612565204871377e-01 9.488510832551540807e+05 5.247037034121352583e+00
1.366178477309061634e+01 3.098051362502201589e-01 7.748397725321751786e+05 5.600612331504239094e+00
1.349863357230721839e+01 3.234249300543141081e-01 6.341951291109576123e+05 5.964498558441328591e+00
1.335256313697230901e+01 3.375078508711709668e-01 5.205042202566526830e+05 6.338996401290120986e+00
1.322169366778710575e+01 3.520315046782286350e-01 4.283702580565124517e+05 6.724415314995384030e+00
1.310432171446463201e+01 3.669906734670552728e-01 3.534625616402177257e+05 7.121073778797859966e+00
1.299908250699434475e+01 3.823706637230063765e-01 2.925236336860681768e+05 7.529299559399959207e+00
1.290466482212841193e+01 3.981607081340287624e-01 2.427153771268593264e+05 7.949429981805804957e+00
1.281977278995361225e+01 4.143543968311895198e-01 2.019685838163036387e+05 8.381812208059571390e+00
1.274341052533832297e+01 4.309352356914364912e-01 1.684022785963409406e+05 8.826803524112285970e+00
1.267462784844241419e+01 4.478961797751279672e-01 1.407934037888566672e+05 9.284771635054280381e+00
1.261253454849886779e+01 4.652283171853904831e-01 1.179903835586822242e+05 9.756094968957118141e+00
1.255633254752228645e+01 4.829266089723614486e-01 9.909763814373099012e+04 1.027944070103609953e+01
1.250526880512118133e+01 5.011920716322132430e-01 8.326221923588158097e+04 1.098815840640287789e+01
1.245928671832750645e+01 5.200987411901422108e-01 6.996977891732231365e+04 1.171754367080996317e+01
1.241828244668917769e+01 5.396281170287843265e-01 5.882515259456759668e+04 1.246819919966946344e+01
1.238206459696264794e+01 5.597516896610486015e-01 4.950949189473765728e+04 1.324074527443201177e+01
1.235036370614264456e+01 5.804617131119311768e-01 4.169850431382376701e+04 1.403582026513756098e+01
1.232278997124594788e+01 6.017202187140320291e-01 3.517164458697319787e+04 1.485408115791302741e+01
1.229903665103156030e+01 6.235226694479425458e-01 2.970332094554961805e+04 1.569620409785307302e+01
1.227877622505362076e+01 6.458438818972628281e-01 2.512337046584631753e+04 1.656288494773186670e+01
1.226168333972666780e+01 6.686620139081643766e-01 2.128138539890594257e+04 1.745483986300839874e+01
1.224736266441237831e+01 6.919561891807669562e-01 1.805497396701722391e+04 1.837280588359973876e+01
1.223554259175051051e+01 7.157080992866038383e-01 1.534426403034796567e+04 1.931754154291168746e+01
1.222589185926830879e+01 7.399027512619237301e-01 1.305672672597820201e+04 2.028982749462984359e+01
1.221818577668600270e+01 7.645218045475510316e-01 1.112944507353399968e+04 2.129046715778913068e+01
1.221212161108369720e+01 7.895410280852159790e-01 9.501518323863178011e+03 2.232028738065479345e+01
1.220748107940803351e+01 8.149577181156240080e-01 8.123075533972690209e+03 2.338013912396336380e+01
1.220401464390891633e+01 8.407352593735668567e-01 6.955557365320555618e+03 2.447089816408832874e+01
1.220133738123742440e+01 8.668742969733002068e-01 5.962688177344443829e+03 2.579990558827216773e+01
1.219967491439973628e+01 8.934158654752185624e-01 5.118123178111263769e+03 2.734109523972249889e+01
1.219879628431094609e+01 9.203482993478538932e-01 4.398118029040629153e+03 2.892722891877712854e+01
1.219861907226108499e+01 9.476348307477614474e-01 3.783911002163256853e+03 3.055961727894025159e+01
1.219901266281404872e+01 9.752542671518561468e-01 3.259721302927307079e+03 3.223960919487019794e+01
1.219982185081002157e+01 1.003186099826501865e+00 2.811595021478774925e+03 3.396859287698123353e+01
1.220090037403398675e+01 1.031398150473204156e+00 2.428399459225008286e+03 3.574799701854905720e+01
1.220212850305833108e+01 1.059874028334272689e+00 2.100040440371894420e+03 3.757929197626825157e+01
1.220330613299255162e+01 1.088583545726498736e+00 1.818340470174847269e+03 3.946399098523700388e+01
1.220440154620651718e+01 1.117503039445183699e+00 1.576410550220761024e+03 4.140365140937305455e+01
1.220525014354326387e+01 1.146605991461443042e+00 1.368276437715452175e+03 4.339987602829412339e+01
1.220568646230137055e+01 1.175878516662701934e+00 1.189003545012928271e+03 4.545431436172641781e+01
1.220567502091280687e+01 1.205289459815865438e+00 1.034413001102962426e+03 4.756866403253513198e+01
1.220507689817736541e+01 1.234816380417792514e+00 9.009276485889921560e+02 5.000919174571162529e+01
1.220383451421736787e+01 1.264402382199042441e+00 7.856590984017810797e+02 5.288729637983918508e+01
1.220193947671738144e+01 1.294020531856213685e+00 6.860090113525666311e+02 5.584933203050488970e+01
1.219928600127928675e+01 1.323645722001967062e+00 5.997408941055707601e+02 5.889774628611588270e+01
1.219579719990055011e+01 1.353248654724385824e+00 5.249357964263668919e+02 6.203505811142218107e+01
1.219145630603350305e+01 1.382809329895735795e+00 4.600671381670325104e+02 6.526385992898684663e+01
1.218615454745907378e+01 1.412307283041334571e+00 4.036590135527388838e+02 6.858681976135575553e+01
1.217978982720403103e+01 1.441721318155557485e+00 3.545478413183457747e+02 7.200668343569726915e+01
1.217235028338676273e+01 1.471019455855465896e+00 3.117421558571076048e+02 7.552627685273327529e+01
1.216376047156137830e+01 1.500184625805391470e+00 2.743727699422919954e+02 7.914850832183657303e+01
1.215396267873624225e+01 1.529190013195768083e+00 2.417376938517731162e+02 8.287637096422432137e+01
1.214293006306747458e+01 1.557972638179690339e+00 2.132159525756626408e+02 8.768326791410889598e+01
1.213062456485431362e+01 1.586452047513707164e+00 1.883146511441560449e+02 9.263255268457011482e+01
1.211700782906293661e+01 1.614599852871825281e+00 1.665342837895914272e+02 9.772616803182692991e+01
1.210205682482722800e+01 1.642419174877674415e+00 1.474519320491368717e+02 1.029683229105796158e+02
1.208573137753358218e+01 1.669881166142032969e+00 1.307014097470091087e+02 1.083633490166695026e+02
1.206796349143346170e+01 1.696978070491191870e+00 1.159850185795771864e+02 1.139157043664445013e+02
1.204875624402618151e+01 1.723685904147792103e+00 1.030238928905333751e+02 1.196299769805057736e+02
1.202803621265173284e+01 1.749996965470292487e+00 9.159425393224226752e+01 1.255108886748795243e+02
1.200582630119151695e+01 1.775868209533353559e+00 8.151867000195986179e+01 1.322420684278385750e+02
1.198213418597130620e+01 1.801193204861858632e+00 7.264527856340595235e+01 1.399110187379803847e+02
1.195693402435188091e+01 1.825946897308774464e+00 6.482034777071322651e+01 1.478036102554911224e+02
1.193022091967407405e+01 1.850098516318414266e+00 5.792061159396378400e+01 1.559263647842176965e+02
1.190190861721230853e+01 1.873689869922175122e+00 5.180041071760550864e+01 1.642859943162369518e+02
1.187205180534803617e+01 1.896667518870185143e+00 4.638206124345843051e+01 1.728894065781072982e+02
1.184057220571494540e+01 1.919035529520576766e+00 4.156958419928751169e+01 1.817437107388590505e+02
1.180749908933594305e+01 1.940819358818894003e+00 3.729147771684029067e+01 1.915263602806600716e+02
1.177292172114275459e+01 1.961859523238099756e+00 3.349954348383712244e+01 2.029175924403404849e+02
1.173681316767073035e+01 1.982154553211965986e+00 3.013203724560655417e+01 2.146410146404547845e+02
1.169915733158605065e+01 2.001693936630254189e+00 2.713904516216273777e+01 2.267063141757061544e+02
1.165992029136136665e+01 2.020481253264461596e+00 2.446881804065327159e+01 2.391234608407744986e+02
1.161909318276957492e+01 2.038501278787128612e+00 2.208879308217217030e+01 2.519027151685540673e+02
1.157665403669914639e+01 2.055817500159943467e+00 1.995489905886443438e+01 2.656196952933879629e+02
1.153280964251018759e+01 2.072127051207489412e+00 1.806315526229766277e+01 2.817899973726013627e+02
1.148737538892104304e+01 2.087318308545838441e+00 1.638696902911238951e+01 2.984318562795775165e+02
1.144014230131681487e+01 2.101397128793282665e+00 1.489472263324312173e+01 3.155590235101576013e+02
1.139100041511935046e+01 2.114372328040015958e+00 1.356096739911914284e+01 3.331856515800123475e+02
1.134013418310716226e+01 2.126082507687958589e+00 1.237750900218342842e+01 3.535884580381472801e+02
1.128748618292241446e+01 2.136020190021484577e+00 1.134322527494959054e+01 3.753088749646074120e+02
1.123245447986311163e+01 2.144133657396238402e+00 1.043424790246142386e+01 3.979424082698366760e+02
1.117513684801773088e+01 2.150167070938361569e+00 9.643536528738028579e+00 4.240472883536494919e+02
1.111505483568179464e+01 2.153898761959181840e+00 8.958307253597842745e+00 4.514766841492312324e+02
1.105199844401628262e+01 2.155325944314517628e+00 8.361954170818517440e+00 4.824521079640234689e+02
