# Radius[km]  Mass[Solar Mass] Lambda Central_pressure[MeV fm-3]
1.971236566078228236e+01 1.476848667620563882e-01 1.881118698328453302e+07 2.436622979057135652e+00
1.858410768053940387e+01 1.546761444398610241e-01 1.443973924389907159e+07 2.653279336683547651e+00
1.763061371902364272e+01 1.620664995334550884e-01 1.115877013967371546e+07 2.883139585742554800e+00
1.681765926251813070e+01 1.698622763695392390e-01 8.670302728371940553e+06 3.126859622920102666e+00
1.612025813501460547e+01 1.780623134055582812e-01 6.769962134634885937e+06 3.384967351755942211e+00
1.551824700947081048e+01 1.866736035449977904e-01 5.311131865330219269e+06 3.657945961523756395e+00
1.499536341658796701e+01 1.957016307536640354e-01 4.183754209495691583e+06 3.946364843095019559e+00
1.453897477782115644e+01 2.051534970086418552e-01 3.308301661917237099e+06 4.250809329638695289e+00
1.413953752357907234e+01 2.150314200530989983e-01 2.625841697254043072e+06 4.571880567747538926e+00
1.378811605285455855e+01 2.253464485319646715e-01 2.091354005295396782e+06 4.910662305001716632e+00
1.347852126445428311e+01 2.360983083904335533e-01 1.671146737690961920e+06 5.267586900909712710e+00
1.320474401313928325e+01 2.473001633442908631e-01 1.339523115536136553e+06 5.643165985201787471e+00
1.296212276049021561e+01 2.589669683607559447e-01 1.076847350531214615e+06 6.038092024611412256e+00
1.274687553270667451e+01 2.710933717820052657e-01 8.683427632908641826e+05 6.454020537845235772e+00
1.255573048964835792e+01 2.836906424360225998e-01 7.020066498605298111e+05 6.890847962389699433e+00
1.238493075357513540e+01 2.968493310743677283e-01 5.683597441074566450e+05 7.392792561007383689e+00
1.223110922862233174e+01 3.108472636832458891e-01 4.594088658531127730e+05 7.940029135487820966e+00
1.209421955069344534e+01 3.257019767361957752e-01 3.710198549646126339e+05 8.503318462081839613e+00
1.197398042877274982e+01 3.413884679344392215e-01 2.998296018489655107e+05 9.083131435576893509e+00
1.186929427068337972e+01 3.578950792506493395e-01 2.424877127644911234e+05 9.679952764086587891e+00
1.177943266636076025e+01 3.751972992978090393e-01 1.964818127140711294e+05 1.029428137425369094e+01
1.170312705102701223e+01 3.932770750176822205e-01 1.595660666152721387e+05 1.092663082833946753e+01
1.163912334884788713e+01 4.121201050033328483e-01 1.298978000593062316e+05 1.157752975354792468e+01
1.158656499567836207e+01 4.317155050888007439e-01 1.060263170728607656e+05 1.224752228394403275e+01
1.154414681437717682e+01 4.520431698740843274e-01 8.679838868825459213e+04 1.293716851533521250e+01
1.151108895483437777e+01 4.730849592228056344e-01 7.125033652460284065e+04 1.364704497349642409e+01
1.148624733875311499e+01 4.948343008355282624e-01 5.866777068577711179e+04 1.437774509613026375e+01
1.146882784027812008e+01 5.172682081351681616e-01 4.845062712463289063e+04 1.512987972896500821e+01
1.145811959210638520e+01 5.403804827287779222e-01 4.012216533106464340e+04 1.590407763640526717e+01
1.145335644281386500e+01 5.641553491117954344e-01 3.332303511957351293e+04 1.670098602716216973e+01
1.145395198734532727e+01 5.885776064966095067e-01 2.775532654908981567e+04 1.752127109530253435e+01
1.145923593975641452e+01 6.136360638301108228e-01 2.317580090620095143e+04 1.836561857716924351e+01
1.146869318901426205e+01 6.393174634763998387e-01 1.940539766053796848e+04 1.923473432463846677e+01
1.148183896117190983e+01 6.656074344483533523e-01 1.628771794627211602e+04 2.012934489519289727e+01
1.149823887869288619e+01 6.924891084861553026e-01 1.370488864482077224e+04 2.105019815930439364e+01
1.151749705304853677e+01 7.199481432423838756e-01 1.155931888259931657e+04 2.199806392563360546e+01
1.153921793982795307e+01 7.479726588365456230e-01 9.771427150078059640e+03 2.297373458456943496e+01
1.156308734250050918e+01 7.765480210008334216e-01 8.276776839439429750e+03 2.397802577064614482e+01
1.158878666631112253e+01 8.056515018569622155e-01 7.026151211811516987e+03 2.501177704439198024e+01
1.161603124016316535e+01 8.352737237975992324e-01 5.976015322783402553e+03 2.607585259417931312e+01
1.164454230786036071e+01 8.653939285654493885e-01 5.092420239623389534e+03 2.717114195866295034e+01
1.167409952891871150e+01 8.959991987527023971e-01 4.347266845338630446e+03 2.829856077041057461e+01
1.170446589536109805e+01 9.270677764852658376e-01 3.717431718778782852e+03 2.947355303745369071e+01
1.173562286029398294e+01 9.586658801844906153e-01 3.183056320406533359e+03 3.111882909335491476e+01
1.176764262168550346e+01 9.908423611621767213e-01 2.728653092498367187e+03 3.281236802113906492e+01
1.180038545143286299e+01 1.023564564302073654e+00 2.341747364041757919e+03 3.455558557398267538e+01
1.183375637463043972e+01 1.056797537073206117e+00 2.012426527858568306e+03 3.634993903506198620e+01
1.186762909048480807e+01 1.090514893954569242e+00 1.731933541322412566e+03 3.819692843580269681e+01
1.190181909084129863e+01 1.124686039325690112e+00 1.492157518514583444e+03 4.009809780986604721e+01
1.193627363869530633e+01 1.159279997257289807e+00 1.287595521761574219e+03 4.205503648391954385e+01
1.197080656087661765e+01 1.194265681019723413e+00 1.112563443571566950e+03 4.406938040627154862e+01
1.200529070713517044e+01 1.229612402228157819e+00 9.627161516349801786e+02 4.614281351448020274e+01
1.203965835577413834e+01 1.265288179565760229e+00 8.341059199856023270e+02 4.827706914308011221e+01
1.207373772802555756e+01 1.301274293874250754e+00 7.236611566125886839e+02 5.047393147260360280e+01
1.210747501933866488e+01 1.337518962560731550e+00 6.286737600146484510e+02 5.273523702110785649e+01
1.214064396339704999e+01 1.374017094821017526e+00 5.468893771582024783e+02 5.506287617945476853e+01
1.217328092416480700e+01 1.410723037872916530e+00 4.763265044075847641e+02 5.745879479162709913e+01
1.220526121621362670e+01 1.447613140842188617e+00 4.154011989981825650e+02 5.992499578140195382e+01
1.223644761269653713e+01 1.484654578823946025e+00 3.627075428947511000e+02 6.246354082674130836e+01
1.226682136244438048e+01 1.521806096878566272e+00 3.170757956174657011e+02 6.507655208329964580e+01
1.229618848280571441e+01 1.559067866566818283e+00 2.774904469781163243e+02 6.776621395848916052e+01
1.232458255279192549e+01 1.596381308075565331e+00 2.431334402717632486e+02 7.053477493758595074e+01
1.235188813687403098e+01 1.633724344395081740e+00 2.132588263887330413e+02 7.338454946340335994e+01
1.237801978440303152e+01 1.671064283921321891e+00 1.872633815173948051e+02 7.631791987110419484e+01
1.240269893450084915e+01 1.708148922935574410e+00 1.647104343680156546e+02 8.024922893400562884e+01
1.242538268044835981e+01 1.744598029384904825e+00 1.452547706645168262e+02 8.440148891601107550e+01
1.244592229447845533e+01 1.780399894171933228e+00 1.283946801983361183e+02 8.867555216064674539e+01
1.246419792440469543e+01 1.815543718728790612e+00 1.137397307135073561e+02 9.307499167029007481e+01
1.248014050539166320e+01 1.850015476036678042e+00 1.009518481575491222e+02 9.760348525851738088e+01
1.249378986657613133e+01 1.883843343027631345e+00 8.975646930383304323e+01 1.022648186246575648e+02
1.250497973395540541e+01 1.916989087019687510e+00 7.993361572228411660e+01 1.070628885185352743e+02
1.251381113767165942e+01 1.949468151293990648e+00 7.128785375987052930e+01 1.120017059980494736e+02
1.252021579247557170e+01 1.981267749806069345e+00 6.366461295131382059e+01 1.170853997823102475e+02
1.252417848027942426e+01 2.012405102358803433e+00 5.692189514429874464e+01 1.223182197031374585e+02
1.252570434193779114e+01 2.042837536207920301e+00 5.095698449251126760e+01 1.279206217662245990e+02
1.252413558930529369e+01 2.071723185267985823e+00 4.577900576565962609e+01 1.348973944862921712e+02
1.251848922413198117e+01 2.098539544159533587e+00 4.131088622605877703e+01 1.420788253163087234e+02
1.250848841935240330e+01 2.123326442459978036e+00 3.742003299266779237e+01 1.494709177400693250e+02
1.249400477338347670e+01 2.146164777732886719e+00 3.400535727534791164e+01 1.570798513488184653e+02
1.247500463279694927e+01 2.167014061920206736e+00 3.100534005683688576e+01 1.655065303756433366e+02
1.245069525861941528e+01 2.184545362784893197e+00 2.846731431066744378e+01 1.751104932063159083e+02
1.241988757647510688e+01 2.198433552317597517e+00 2.632597188819834244e+01 1.851424776658123221e+02
1.238230128599842139e+01 2.208322040919027174e+00 2.453642627397001519e+01 1.968824255122142972e+02
1.233737274075185120e+01 2.214044548848574934e+00 2.304946709183587217e+01 2.096919384898175451e+02
1.228495554608961449e+01 2.215860956901915646e+00 2.180106866176213032e+01 2.238124838817163038e+02
