# Radius[km]  Mass[Solar Mass] Lambda Central_pressure[MeV fm-3]
1.899619793066226237e+01 1.673295155733760531e-01 1.402003459062779322e+07 2.173792616643601683e+00
1.813821149128242283e+01 1.755663955534218501e-01 1.093782124895301647e+07 2.364698254798997201e+00
1.741060940215530550e+01 1.840192620321536021e-01 8.599566681149855256e+06 2.569493387700567233e+00
1.678727812411726461e+01 1.926764825066080156e-01 6.812143622857076116e+06 2.788514252292516371e+00
1.624639041577667697e+01 2.015420898850815434e-01 5.428334307605919428e+06 3.022712048597139489e+00
1.577300876592255285e+01 2.106238368241820924e-01 4.348445660956198350e+06 3.273022126214388372e+00
1.535478778215300721e+01 2.199358448928673271e-01 3.499047875325963367e+06 3.540361234762534171e+00
1.498243764577388504e+01 2.294917378557809473e-01 2.826223148601423018e+06 3.825624653362988070e+00
1.464883543258042486e+01 2.393074252617425068e-01 2.290314970778022427e+06 4.129952368719010281e+00
1.434800634185633506e+01 2.494134933345704130e-01 1.860713776545650093e+06 4.454051796209245850e+00
1.407534050455920926e+01 2.598375673926777707e-01 1.515106080198786454e+06 4.798714163227319141e+00
1.382737401144837186e+01 2.706005037610223485e-01 1.236064473078744020e+06 5.164760081456333474e+00
1.360096914186191874e+01 2.817375325809599040e-01 1.009760547602444421e+06 5.552974167302127562e+00
1.339375474391432341e+01 2.932798066190156483e-01 8.259127163100468460e+05 5.964116185074844090e+00
1.320377578012539210e+01 3.052591849006775493e-01 6.762367829680264695e+05 6.400019760588035567e+00
1.302965156822045678e+01 3.176969430365048086e-01 5.540329665256524459e+05 6.860521008026094769e+00
1.286981317406753256e+01 3.306302336636297023e-01 4.542838921662368812e+05 7.346271352176296787e+00
1.272333947411044086e+01 3.440739351291569603e-01 3.727647441743520903e+05 7.859820912483275634e+00
1.258908850292567116e+01 3.580588367239224690e-01 3.060762773230351740e+05 8.400291843881978693e+00
1.246629824127999697e+01 3.726080685088616895e-01 2.514801235713279457e+05 8.970024308456792994e+00
1.235418884591892308e+01 3.877433728687945669e-01 2.067665154296012188e+05 9.569013934768298313e+00
1.225207087982194132e+01 4.034810550856208211e-01 1.701080108419559547e+05 1.019954360078431144e+01
1.215934501501931209e+01 4.198433890433492799e-01 1.400709574572640413e+05 1.086096828250888180e+01
1.207497087959182558e+01 4.369998261274952722e-01 1.152623755839122314e+05 1.164964212802555643e+01
1.199894238550090009e+01 4.551073448452947479e-01 9.470489848602996790e+04 1.246256710742352070e+01
1.193155353257237117e+01 4.741307454951810829e-01 7.777936086130114563e+04 1.330012160876140648e+01
1.187243983846015816e+01 4.940588571229566628e-01 6.389198730503537081e+04 1.416305184277990747e+01
1.182153531576413741e+01 5.148527536166294105e-01 5.252988647998787928e+04 1.505212662847293537e+01
1.177827931885209090e+01 5.364767124639108209e-01 4.324341498209966085e+04 1.596813807805920327e+01
1.174218910681588390e+01 5.589136881197592777e-01 3.565741498883342138e+04 1.691190230270663264e+01
1.171290685930499009e+01 5.821468069350036467e-01 2.945903325875258815e+04 1.788426013963827899e+01
1.168964649698146552e+01 6.061386866333837720e-01 2.438833794384554130e+04 1.888607790126793162e+01
1.167196937529078760e+01 6.308557692001809380e-01 2.023480382021336845e+04 1.991824814703224789e+01
1.165925835169516311e+01 6.562805123600881085e-01 1.682580974506946586e+04 2.098169047860779202e+01
1.165108129897488354e+01 6.823849699313396799e-01 1.402543751164161404e+04 2.207735235922065442e+01
1.164705006194888171e+01 7.091543305148478860e-01 1.171542946322905846e+04 2.320620995777946760e+01
1.164653035400786685e+01 7.365478489840728837e-01 9.809247603963196525e+03 2.436926901858310046e+01
1.164930073253423792e+01 7.645560064877223727e-01 8.232244731838536609e+03 2.556756575737853865e+01
1.165479755760028802e+01 7.931464709857158901e-01 6.924209765381649959e+03 2.680216778456671634e+01
1.166266055261275802e+01 8.222974362376365143e-01 5.836022158366286931e+03 2.807417505637934951e+01
1.167266626172321686e+01 8.519880284238353640e-01 4.929111178436267437e+03 2.938472085487382657e+01
1.168449839640115506e+01 8.821905657718478455e-01 4.171968112536720582e+03 3.073497279761940959e+01
1.169782538164144547e+01 9.128778790158841305e-01 3.538298578434167212e+03 3.212613387797436104e+01
1.171240720964368798e+01 9.440272522946000500e-01 3.006236072653573956e+03 3.376837422098657981e+01
1.172802425159428630e+01 9.756505766559989690e-01 2.558826223026429489e+03 3.572447097070388367e+01
1.174462241205915269e+01 1.007703527518247100e+00 2.181829933194587284e+03 3.773983238694611231e+01
1.176201459129444160e+01 1.040161095643493239e+00 1.863883425601501813e+03 3.981625403565282539e+01
1.177984708615125520e+01 1.072997233454378696e+00 1.594842869735428167e+03 4.195558588376225373e+01
1.179815215680909724e+01 1.106166396835320587e+00 1.367161456965927982e+03 4.415973394742064073e+01
1.181670222909945167e+01 1.139645816056032768e+00 1.173908341473194469e+03 4.643066199012821471e+01
1.183526763894148282e+01 1.173394951364674421e+00 1.009722741768089804e+03 4.877039327233433852e+01
1.185377671077344175e+01 1.207394064757615793e+00 8.698767913820151989e+02 5.118101235404109417e+01
1.187204962605752812e+01 1.241611517804302567e+00 7.506048282052721561e+02 5.366466695202108639e+01
1.188992259305199184e+01 1.276004713711911487e+00 6.486731955968012926e+02 5.622356985330387147e+01
1.190731309005380645e+01 1.310554022035504085e+00 5.614467098219237187e+02 5.886000088663640639e+01
1.192414857310948051e+01 1.345219062897648143e+00 4.866635705639248499e+02 6.157630895367343271e+01
1.194015507816648380e+01 1.379985215790565434e+00 4.223738797627988788e+02 6.437491412170770388e+01
1.195536314850767212e+01 1.414804578214115427e+00 3.671025055754035975e+02 6.725830977980460545e+01
1.196962763830500975e+01 1.449612418956706783e+00 3.195506489031764659e+02 7.061307244301632124e+01
1.198252933125029429e+01 1.484078521943534623e+00 2.788053398603341861e+02 7.453839230643598057e+01
1.199380189548585030e+01 1.518104428660375094e+00 2.438628107548455262e+02 7.858263919774560691e+01
1.200339003263831295e+01 1.551698125892487123e+00 2.137578619264643578e+02 8.274941629794834341e+01
1.201111536691401049e+01 1.584821574358226570e+00 1.877529949352763197e+02 8.704243595510169484e+01
1.201691401862693276e+01 1.617491428199789860e+00 1.652123114257201735e+02 9.146552299179693080e+01
1.202074849628576381e+01 1.649674344597263476e+00 1.456284817222845334e+02 9.602261811284601833e+01
1.202257710050391282e+01 1.681370573865463180e+00 1.285597322022096876e+02 1.007177814162129437e+02
1.202231279472495906e+01 1.712561406863100988e+00 1.136541580503009072e+02 1.055551960103170472e+02
1.201996263355827566e+01 1.743232595489218495e+00 1.006173331965120497e+02 1.108237771912760508e+02
1.201534247561653324e+01 1.773085668845092000e+00 8.926888833762052400e+01 1.171864253155621043e+02
1.200819501504509823e+01 1.802044101582172209e+00 7.937697038147045703e+01 1.237418452029808265e+02
1.199852428473591281e+01 1.830078497427419126e+00 7.072134127011457849e+01 1.304958773388044051e+02
1.198624987626570437e+01 1.857211183041057589e+00 6.312694879623477817e+01 1.374545391598855986e+02
1.197129654762173345e+01 1.883428781272675323e+00 5.644437753168019611e+01 1.446240304158328058e+02
1.195368235344218810e+01 1.908771079672522353e+00 5.053687784732099431e+01 1.520107386926141260e+02
1.193340932259415155e+01 1.933154910010423722e+00 4.532391609565661383e+01 1.606927518290307262e+02
1.191043111543733701e+01 1.956380225406983309e+00 4.073561712478596775e+01 1.701652819620407797e+02
1.188456854498473980e+01 1.978394911026711167e+00 3.668939142166852463e+01 1.799248052305187286e+02
1.185580418339112896e+01 1.999246183132628474e+00 3.310149487590583561e+01 1.899800167833477076e+02
1.182414565564209674e+01 2.018961714735781232e+00 2.991417571137943199e+01 2.003398752099072908e+02
1.178963069543399911e+01 2.037541554870123228e+00 2.707372216825837086e+01 2.122387531205280879e+02
1.175224793396123779e+01 2.054774391127677458e+00 2.455831864601232439e+01 2.252677656760316154e+02
1.171197932497459249e+01 2.070694087855883048e+00 2.231994979942389534e+01 2.386915235754768787e+02
1.166868453009342410e+01 2.085301954389345180e+00 2.032092792995850772e+01 2.525219865806574262e+02
1.162246575821753680e+01 2.098636933083688483e+00 1.853015809254875634e+01 2.680248787501044490e+02
1.157342817152365022e+01 2.110579051652776261e+00 1.693258464975329503e+01 2.851521842389233825e+02
1.152155779515322465e+01 2.121121200392981354e+00 1.550419667304459281e+01 3.027984027357070431e+02
1.146669759222105256e+01 2.130313615100088764e+00 1.421896209477765716e+01 3.212421873811052251e+02
1.140908224618869049e+01 2.138106614664645910e+00 1.306713546387652691e+01 3.428223519986788688e+02
1.134878629016384188e+01 2.144492804626323856e+00 1.203293362877239758e+01 3.650563397258696341e+02
1.128564152762690931e+01 2.149476287762327242e+00 1.110100892488104485e+01 3.884379467809590096e+02
1.121995518854008189e+01 2.153097211595101257e+00 1.026064427842261040e+01 4.153472966022942501e+02
1.115165613386742116e+01 2.155277719897340294e+00 9.504352024387729969e+00 4.430719300458711700e+02
1.108073042204755865e+01 2.156074925322784441e+00 8.820918304753519124e+00 4.737440355161309640e+02
