# Radius[km]  Mass[Solar Mass] Lambda Central_pressure[MeV fm-3]
1.988373009120279278e+01 1.499882565187298233e-01 1.894367194084850326e+07 2.401512951511681759e+00
1.882019698723561518e+01 1.562865459752992014e-01 1.479596764064056054e+07 2.666583859550857749e+00
1.786306226804862263e+01 1.633105116576414606e-01 1.147711538816880621e+07 2.939662304100894463e+00
1.701615973629375134e+01 1.710494689551022296e-01 8.874853546190869063e+06 3.220990185117731386e+00
1.627442090717512713e+01 1.794775770802920778e-01 6.859469615420952439e+06 3.510816710121688722e+00
1.562912826016207823e+01 1.885650792934174813e-01 5.312516824757680297e+06 3.809398614951948758e+00
1.506941458335194817e+01 1.982863739403693537e-01 4.126551957429301925e+06 4.117000391189824526e+00
1.458469902659766504e+01 2.086137488919862504e-01 3.219482309284902178e+06 4.433894520452230203e+00
1.416504345524429986e+01 2.195195864301855981e-01 2.523056235995046329e+06 4.760361715762955193e+00
1.380160142789101307e+01 2.309792138999650080e-01 1.987541091649205424e+06 5.096691170215547295e+00
1.348651860790420365e+01 2.429685259006643949e-01 1.574019666316690855e+06 5.443180813148013719e+00
1.321257936140331068e+01 2.554767188014503421e-01 1.252479544376480859e+06 5.800137574056351220e+00
1.297412383617940712e+01 2.684814383009725414e-01 1.001691707004155265e+06 6.167877654480664162e+00
1.276634177986240992e+01 2.819626661489477160e-01 8.048858458505399758e+05 6.546726808104636142e+00
1.258478870830049168e+01 2.959100765827619717e-01 6.498210068574867910e+05 6.937020629316590359e+00
1.242589856151204941e+01 3.103100362075931762e-01 5.267232305993593764e+05 7.339104850487713883e+00
1.228652288250938618e+01 3.251500806752360417e-01 4.287104075847836793e+05 7.753335648230705424e+00
1.216420140158102292e+01 3.404140663100068687e-01 3.502232794027902419e+05 8.180079958910242865e+00
1.205619153540536104e+01 3.561646932583008573e-01 2.869050279256118811e+05 8.725356322821076205e+00
1.196031906711182735e+01 3.726587242899024877e-01 2.350215448692591162e+05 9.362122602460724252e+00
1.187615445877162834e+01 3.899044808207959845e-01 1.926120941210813762e+05 1.001812497734304763e+01
1.180310349052095731e+01 4.078803670992233732e-01 1.580279094892153807e+05 1.069394455135499200e+01
1.174040685590956201e+01 4.265638899159355790e-01 1.298351582558279042e+05 1.139017998297158840e+01
1.168713230243016987e+01 4.459298594461311716e-01 1.068624401833741140e+05 1.210744801556303329e+01
1.164256105518566287e+01 4.659663706743534806e-01 8.812087557646885398e+04 1.284638402372198840e+01
1.160581986514947062e+01 4.866552808383456385e-01 7.281474917662653024e+04 1.360764257609487693e+01
1.157618179455006313e+01 5.079736567672671343e-01 6.030279364037820778e+04 1.439189801521564682e+01
1.155273988794663076e+01 5.298993523523823912e-01 5.004638197635505639e+04 1.519984505485590809e+01
1.153502528547131334e+01 5.524240417984003226e-01 4.162774072898509621e+04 1.603219939542039540e+01
1.152235905647317082e+01 5.755282008638827884e-01 3.470401664404340409e+04 1.688969835793284346e+01
1.151404601079474688e+01 5.991912349031184304e-01 2.899352580712512281e+04 1.777310153717408880e+01
1.150968932439350922e+01 6.234007107230876699e-01 2.427512177723251443e+04 1.868319147455082430e+01
1.150877242564003389e+01 6.481416232257787291e-01 2.036628182079958788e+04 1.962077435129092962e+01
1.151087088840840700e+01 6.733928112061923210e-01 1.712215434440460012e+04 2.058668070257977689e+01
1.151553388781208831e+01 6.991386499938171406e-01 1.442374732901064090e+04 2.158176615326977199e+01
1.152238177653881834e+01 7.253633900712487259e-01 1.217299863073076449e+04 2.260691217581495494e+01
1.153115044512171394e+01 7.520500381813386426e-01 1.029377301178419839e+04 2.366302687110216851e+01
1.154149715573999657e+01 7.791822575579615551e-01 8.719804345608075892e+03 2.482473885884219911e+01
1.155322836411750309e+01 8.068106375098015315e-01 7.396841098589476132e+03 2.632079601758864129e+01
1.156635069452716280e+01 8.349569719991616346e-01 6.283001181002168778e+03 2.786204762037885629e+01
1.158062360385818224e+01 8.635780509190424947e-01 5.344310484587119390e+03 2.944985894778417190e+01
1.159589178441875212e+01 8.926574876799157066e-01 4.552629100420876966e+03 3.108563652418532897e+01
1.161197733557215983e+01 9.221616145863035241e-01 3.884017210081802205e+03 3.277082936370830168e+01
1.162866888375163654e+01 9.520675627865278212e-01 3.318659305610008687e+03 3.450693025379839440e+01
1.164579594824120257e+01 9.823485124105491018e-01 2.839842611125254280e+03 3.629547707757009789e+01
1.166319516822992775e+01 1.012971064612676608e+00 2.433798189070686476e+03 3.813805417610370796e+01
1.168072157701201164e+01 1.043917745957428256e+00 2.089014683982698898e+03 4.003629375189574802e+01
1.169819405027866921e+01 1.075164445057600338e+00 1.795600524244760436e+03 4.199187731470607332e+01
1.171549244101663412e+01 1.106675637694174652e+00 1.545392904658869838e+03 4.400653717108286855e+01
1.173247821259641732e+01 1.138430304158319917e+00 1.332044324823662237e+03 4.608205795888462575e+01
1.174899207988779537e+01 1.170403506069653154e+00 1.149572465677657874e+03 4.822027822815842768e+01
1.176498151513641588e+01 1.202561634798424928e+00 9.935430280751295413e+02 5.042309206977537883e+01
1.178026108798853677e+01 1.234881736336725711e+00 8.596622150400528426e+02 5.285796631526243061e+01
1.179474572405327493e+01 1.267296168111444965e+00 7.449218779778422004e+02 5.587836307896159127e+01
1.180840672132910640e+01 1.299730818909249130e+00 6.465792091196277624e+02 5.899000311617406567e+01
1.182105793081712797e+01 1.332197141062723800e+00 5.619368043744210581e+02 6.219564279820217934e+01
1.183270588041683347e+01 1.364639840744373389e+00 4.891082967949818681e+02 6.549812176366735628e+01
1.184330201043699482e+01 1.397028820485794132e+00 4.263188116280171585e+02 6.890036543393534885e+01
1.185264727491933101e+01 1.429364133683309168e+00 3.720678861627433776e+02 7.240538760453014788e+01
1.186078921614487491e+01 1.461593046454902955e+00 3.251523276327242229e+02 7.601629311483226559e+01
1.186761611869843946e+01 1.493704397176256027e+00 2.845144376627663405e+02 7.973628059842573634e+01
1.187305899201087023e+01 1.525661163437311396e+00 2.492252221315478664e+02 8.356864531653047834e+01
1.187710632979417369e+01 1.557458552720529354e+00 2.185718345821425430e+02 8.751678207703017165e+01
1.187964643111510732e+01 1.589053359107056584e+00 1.918902380105105294e+02 9.158418824168094829e+01
1.188060906275730666e+01 1.620306211662019713e+00 1.687285928780314066e+02 9.685354013473602208e+01
1.187982503028703185e+01 1.651081006846779387e+00 1.486071790210994834e+02 1.022882407641999407e+02
1.187728263875048640e+01 1.681351653369498544e+00 1.311193604837103237e+02 1.078871184587292333e+02
1.187286052062763986e+01 1.711115217492104268e+00 1.158707801725389714e+02 1.136551328491353701e+02
1.186655951367019490e+01 1.740319906590454435e+00 1.025452061044167777e+02 1.195973933918938457e+02
1.185830401231219078e+01 1.769044356557960329e+00 9.085469631297441140e+01 1.257191638952331800e+02
1.184810920891728969e+01 1.797187760963500525e+00 8.060975807872749499e+01 1.320258671819520373e+02
1.183590815135153029e+01 1.824795193990691455e+00 7.159511893171328722e+01 1.385230898930965964e+02
1.182172086523826415e+01 1.851762139601194290e+00 6.366736891973457091e+01 1.462196758869992266e+02
1.180541939058971224e+01 1.877874139516884977e+00 5.673424046004447518e+01 1.547009766113162925e+02
1.178696507065908605e+01 1.903128989195148169e+00 5.064205271469568714e+01 1.634384892515768968e+02
1.176624925464824400e+01 1.927509996545625270e+00 4.528116002541694485e+01 1.724399537226839811e+02
1.174327097015815013e+01 1.951035116389360446e+00 4.054396470106964045e+01 1.817133437549054236e+02
1.171801624456533553e+01 1.973700982775973056e+00 3.635254650240307939e+01 1.912668739572112031e+02
1.169045818512251245e+01 1.995503059296650061e+00 3.263309593055030433e+01 2.016443158311889761e+02
1.166069831670034951e+01 2.016314969689798620e+00 2.934553625641012786e+01 2.138761081391987489e+02
1.162862069800682008e+01 2.036049954533550199e+00 2.643652869290709262e+01 2.264774110971107461e+02
1.159421465003607210e+01 2.054721608587086745e+00 2.385669860744238591e+01 2.394593872653209132e+02
1.155741536213583665e+01 2.072349663301642941e+00 2.156025887725094492e+01 2.528335364144108155e+02
1.151822570330077689e+01 2.088958144311616749e+00 1.951035628005888256e+01 2.668315701035267580e+02
1.147677445316162981e+01 2.104448939248630079e+00 1.768450241794573330e+01 2.836980399153165422e+02
1.143312571653757637e+01 2.118792233843115547e+00 1.605838685167779545e+01 3.010740295149492454e+02
1.138711873952376230e+01 2.131982113465458184e+00 1.460549626209525798e+01 3.189749310038600356e+02
1.133875616740374603e+01 2.144049680111606904e+00 1.330309845951273573e+01 3.374166014640250637e+02
1.128815140992034749e+01 2.154996160218278334e+00 1.213453047104192173e+01 3.588372627494127300e+02
1.123548180697699905e+01 2.164734159746499742e+00 1.109030200711084113e+01 3.818130542732567392e+02
1.118055720367386030e+01 2.173260905371567908e+00 1.015249486662105660e+01 4.054829223023427858e+02
1.112344963062039405e+01 2.180656782634919910e+00 9.307972771874522877e+00 4.298678342185628480e+02
1.106426149066965436e+01 2.186874097996552635e+00 8.547691881352177390e+00 4.589532472663831300e+02
1.100313748946090264e+01 2.191895402920682301e+00 7.864515799253134709e+00 4.890307188963312228e+02
1.093996893488389510e+01 2.195756137633340987e+00 7.247212493377912956e+00 5.200168019390256404e+02
1.087484924588735247e+01 2.198460669873824713e+00 6.690067506080734638e+00 5.551931648176415592e+02
1.080794396059212126e+01 2.200004613529523478e+00 6.186420332575576886e+00 5.930936216967014616e+02
1.073924200804068541e+01 2.200396757478931153e+00 5.731277965995426271e+00 6.321390148287920283e+02
