# Radius[km]  Mass[Solar Mass] Lambda Central_pressure[MeV fm-3]
1.921799589623573112e+01 1.567065061115336944e-01 1.603632835093892552e+07 2.314066841191173562e+00
1.819628054483311530e+01 1.648409802759313869e-01 1.225594726070596837e+07 2.516183043770800598e+00
1.733826889356792478e+01 1.734051831069901295e-01 9.432591689204404131e+06 2.730386032757225578e+00
1.661098313230801082e+01 1.824034624291231976e-01 7.304543541229282506e+06 2.957191297988015055e+00
1.599009336743129595e+01 1.918336024094036141e-01 5.688863099419866689e+06 3.197321553396873295e+00
1.545617679462313987e+01 2.017016152292842868e-01 4.452585874180271290e+06 3.451220339519719182e+00
1.499475160403878782e+01 2.120060878326618659e-01 3.501427738066128921e+06 3.719454103202314510e+00
1.459370294208303598e+01 2.227540114755386658e-01 2.765905412304468919e+06 4.002670351256023551e+00
1.424138607109366994e+01 2.340521370568212634e-01 2.189225217189052142e+06 4.349772371499863510e+00
1.393046176506473621e+01 2.459971848728335353e-01 1.734826150061936118e+06 4.707815199635501102e+00
1.365720424516405984e+01 2.585691209936023527e-01 1.377889295452073449e+06 5.076622316521193667e+00
1.341766257192863421e+01 2.717487465899238730e-01 1.097206564570072340e+06 5.456517342414602290e+00
1.320818498242421590e+01 2.855130437187342607e-01 8.765333210026744055e+05 5.847833626973405252e+00
1.302523818118944554e+01 2.998480595151905015e-01 7.027197085589955095e+05 6.250914541762404575e+00
1.286561989754117441e+01 3.147326811367279209e-01 5.654177839844976552e+05 6.666113781554646955e+00
1.272647683299504351e+01 3.301531517071559230e-01 4.565530966066151741e+05 7.093795674690898778e+00
1.260535974897759814e+01 3.460964638558111095e-01 3.700909244594218908e+05 7.534335502769904380e+00
1.249999046814112980e+01 3.625489809433831701e-01 3.010336479137919378e+05 7.988119829949857476e+00
1.240835429333028905e+01 3.794950570663911393e-01 2.457719483491480933e+05 8.455546842150059916e+00
1.232889502730568054e+01 3.969271339446783786e-01 2.013406397034600377e+05 8.937026696450464769e+00
1.226012611777076344e+01 4.148325341686475154e-01 1.654734884156039625e+05 9.432981880995606971e+00
1.220060154804538044e+01 4.331989551702319918e-01 1.364623996200861293e+05 9.943847585718822657e+00
1.214924421105155439e+01 4.520198681086267101e-01 1.128504255882310827e+05 1.047007208421198321e+01
1.210504557589846364e+01 4.712773570324526040e-01 9.360887180772106512e+04 1.101211712707584844e+01
1.206710249574953941e+01 4.909710679960325730e-01 7.786727863917351351e+04 1.157045834709624010e+01
1.203452568336340534e+01 5.110838259294316899e-01 6.493947715286482708e+04 1.214558567660151667e+01
1.200682659516428430e+01 5.316162211753396871e-01 5.429499565291497856e+04 1.281053499300906218e+01
1.198324580621032531e+01 5.527148086079611833e-01 4.545047065873138490e+04 1.365893088082130014e+01
1.196381865586311122e+01 5.744030037368993424e-01 3.809382675297636160e+04 1.453283315388449459e+01
1.194818434020284670e+01 5.966672718897795269e-01 3.196981431444001282e+04 1.543300864251680515e+01
1.193605282761381581e+01 6.194763097827694631e-01 2.687384929899780036e+04 1.636024723121402502e+01
1.192705242023124690e+01 6.428147878875177801e-01 2.262858021783407821e+04 1.731536255175617356e+01
1.192085392468233884e+01 6.666619225508567670e-01 1.908419359864316721e+04 1.829919269715166763e+01
1.191715937715817297e+01 6.909972896940161924e-01 1.612462057692663439e+04 1.931260095704590540e+01
1.191568613438652946e+01 7.158039503949086280e-01 1.364758446345893208e+04 2.035647657523913168e+01
1.191603815508071129e+01 7.410549727649676788e-01 1.157076687713943829e+04 2.143173552997867404e+01
1.191793952673060986e+01 7.667372153422924441e-01 9.827546149885987688e+03 2.253932133770998547e+01
1.192126634098728211e+01 7.928381035034139934e-01 8.360118346017623480e+03 2.368020588099191315e+01
1.192563045604951810e+01 8.193331134426494744e-01 7.123797104637060329e+03 2.485539026130258478e+01
1.193091037821383971e+01 8.461942986018649027e-01 6.080552264132284108e+03 2.606590567748427389e+01
1.193681870471422179e+01 8.734183981114340689e-01 5.197869219670509665e+03 2.731281433059804442e+01
1.194319076597892604e+01 9.009749074070465547e-01 4.450266795153530438e+03 2.859721035598217753e+01
1.194985652161263801e+01 9.288581097257344599e-01 3.815612157105555525e+03 3.022607895160323821e+01
1.195672349379175614e+01 9.570836000203282179e-01 3.275615378214546126e+03 3.202043945195390506e+01
1.196381493153786835e+01 9.856135065694919817e-01 2.816221157342224160e+03 3.386874605324465648e+01
1.197093559073022817e+01 1.014432851501697153e+00 2.424449660813880200e+03 3.577262060448853731e+01
1.197789046489058684e+01 1.043525758746520760e+00 2.089896386754496689e+03 3.773373371437130430e+01
1.198469534900213951e+01 1.072846135327462758e+00 1.803905159242772470e+03 3.975380621717423679e+01
1.199118734489617566e+01 1.102374248578281701e+00 1.559285625105894269e+03 4.183461068276900363e+01
1.199723486580561627e+01 1.132082741591609487e+00 1.349645667825746841e+03 4.397797297200936129e+01
1.200270989018269852e+01 1.161963649202070847e+00 1.169618996529062315e+03 4.618577383888439414e+01
1.200752752896848996e+01 1.191975152815567984e+00 1.014925698206234074e+03 4.845995058083955342e+01
1.201152906332530002e+01 1.222107849200104734e+00 8.816191159243938955e+02 5.080249873871311195e+01
1.201470938372652064e+01 1.252320345979590854e+00 7.667669824784445609e+02 5.321547384778011036e+01
1.201694075588532051e+01 1.282584000860605977e+00 6.677039532433525437e+02 5.612538825840347556e+01
1.201821590698229159e+01 1.312836067885213565e+00 5.821944769194036553e+02 5.938453705339472322e+01
1.201843830312872718e+01 1.343038352130643931e+00 5.083395367637279492e+02 6.274166970939879917e+01
1.201752529602345732e+01 1.373180991635985171e+00 4.444012075205325232e+02 6.619973203761452396e+01
1.201544207380795193e+01 1.403233057013602902e+00 3.890004982922475847e+02 6.976175841284231183e+01
1.201219559260307612e+01 1.433159181745245592e+00 3.409240834669517426e+02 7.343087443608206399e+01
1.200763093634392931e+01 1.462953326629579331e+00 2.991299004358094749e+02 7.721029967718064313e+01
1.200168034168081732e+01 1.492595802811814698e+00 2.627258801067055174e+02 8.110335049993454959e+01
1.199435687997549493e+01 1.522037134220327381e+00 2.310299125982705846e+02 8.511344297212740173e+01
1.198562284312779447e+01 1.551283838005474980e+00 2.033340488353040030e+02 8.924409586305527853e+01
1.197542608706781486e+01 1.580221358443778756e+00 1.792077317763672397e+02 9.452614068202834119e+01
1.196364146749385071e+01 1.608827436283902790e+00 1.581189608863369926e+02 9.997798750003541102e+01
1.195039488962175867e+01 1.637043651065589245e+00 1.397177652939958250e+02 1.055937399984765221e+02
1.193556200260528044e+01 1.664831683100654880e+00 1.236216650396032861e+02 1.113783258785464625e+02
1.191913041075981816e+01 1.692241195873705584e+00 1.094901724377498482e+02 1.173368209890757328e+02
1.190102249718887784e+01 1.719218120216307932e+00 9.707805213263708310e+01 1.234744537804782993e+02
1.188127501292177080e+01 1.745750374217863277e+00 8.616352948368461284e+01 1.297966098926033283e+02
1.185981775247948278e+01 1.771824727783714026e+00 7.654503264224130987e+01 1.364339782270038768e+02
1.183672202291397291e+01 1.797337290064857429e+00 6.809096750096981054e+01 1.446390983501362086e+02
1.181195562159142298e+01 1.822210285635102123e+00 6.065839832394386377e+01 1.530908992480076165e+02
1.178546791250434644e+01 1.846482528235336540e+00 5.410010777306009544e+01 1.617967971928619875e+02
1.175727692140213065e+01 1.870097621832862433e+00 4.830807320554931295e+01 1.707644314215986299e+02
1.172734835322306424e+01 1.893048146804175547e+00 4.318988768155416835e+01 1.800016708390376152e+02
1.169566022380371706e+01 1.915389899550245634e+00 3.864742433020686008e+01 1.895166209227128888e+02
1.166219738489126811e+01 1.937053338998936614e+00 3.462143879244822386e+01 2.001911984859349332e+02
1.162710039920666816e+01 1.957954358993865274e+00 3.105263012408825318e+01 2.123827911795673913e+02
1.159032736891668414e+01 1.978019624969595824e+00 2.789708269149558362e+01 2.249409149520674021e+02
1.155183550154066552e+01 1.997309431262556334e+00 2.509046198815680739e+01 2.378765892850687749e+02
1.151163338507473100e+01 2.015800929647526996e+00 2.259174776488494629e+01 2.512011649526456551e+02
1.146969785597671887e+01 2.033521830303564037e+00 2.036291477520415683e+01 2.649263339813704192e+02
1.142609192541941354e+01 2.050421728897066753e+00 1.837466650455984407e+01 2.809954972194869924e+02
1.138091956063053622e+01 2.066421063155456483e+00 1.660538811241508483e+01 2.984050306881578081e+02
1.133413516191397896e+01 2.081509493289510626e+00 1.502733605663386740e+01 3.163379687066038173e+02
1.128576885764746152e+01 2.095720762586987806e+00 1.361587760880232878e+01 3.348100470395551724e+02
1.123573936583367505e+01 2.109053449569687100e+00 1.235122325174927305e+01 3.538374745356914559e+02
1.118416451384563715e+01 2.121478637225294950e+00 1.121812200464174403e+01 3.758845058893246005e+02
1.113117451030109173e+01 2.132862654029267446e+00 1.020761407906895712e+01 3.997588320762121725e+02
1.107666701837925949e+01 2.143188423018679067e+00 9.304498093156119864e+00 4.243509219511112747e+02
1.102052465971563144e+01 2.152476161713586578e+00 8.494560135502045028e+00 4.496823545402858144e+02
1.096288742035839014e+01 2.160646528681875900e+00 7.769902215229448572e+00 4.780816280221370675e+02
1.090408875778210707e+01 2.167134400598673238e+00 7.138189358200911272e+00 5.091343504551804244e+02
1.084363932928321006e+01 2.171670259788235580e+00 6.589325251495809610e+00 5.422112459993090852e+02
1.078436551149196809e+01 2.171901651829951430e+00 6.184835327171953168e+00 5.817640300692206665e+02
