# Radius[km]  Mass[Solar Mass] Lambda Central_pressure[MeV fm-3]
1.942923769229139808e+01 1.545101086305381011e-01 1.692196409159537405e+07 2.335262990748641077e+00
1.839073167506843376e+01 1.620599934389994334e-01 1.301381155319197103e+07 2.545014149904429424e+00
1.751238804653807790e+01 1.699877161594331165e-01 1.007800386801486462e+07 2.768225499013201585e+00
1.676231172193353558e+01 1.782991052532523213e-01 7.846519813562541269e+06 3.005463636483131307e+00
1.611729304986375055e+01 1.869950151644065861e-01 6.141000256897773594e+06 3.257373449855681891e+00
1.555906397963867249e+01 1.960775586227155864e-01 4.829203706039351411e+06 3.524629826383535391e+00
1.507247754832695286e+01 2.055582497235199091e-01 3.812286955175485462e+06 3.812695513187035257e+00
1.463913137245877039e+01 2.156707814647171040e-01 3.007940211706325412e+06 4.159784804711654793e+00
1.425201436989707737e+01 2.265645331453377820e-01 2.368364505890827626e+06 4.517322889227392224e+00
1.390924278779359646e+01 2.382195329866556022e-01 1.864569270100299036e+06 4.885624317708989750e+00
1.360807306065781219e+01 2.506063919495908898e-01 1.469891210169083672e+06 5.265013110389099360e+00
1.334471769507295846e+01 2.637065337827073641e-01 1.161386588772625197e+06 5.655823041821291142e+00
1.311527396172883009e+01 2.774953164613985779e-01 9.206183633576469729e+05 6.058397934524609063e+00
1.291598792738744450e+01 2.919581817987003669e-01 7.320824365158752771e+05 6.473091961467996036e+00
1.274343577038134789e+01 3.070747635819708332e-01 5.843447607934242114e+05 6.900269957660767339e+00
1.259452421084749574e+01 3.228258102332342006e-01 4.682199077270491980e+05 7.340307741123186069e+00
1.246639888585930400e+01 3.391937778888473587e-01 3.767503574629616342e+05 7.793592443519559154e+00
1.235653839781162233e+01 3.561668427524977698e-01 3.043097595953426789e+05 8.260522850744720813e+00
1.226255332397983011e+01 3.737342453321510494e-01 2.467730666726609343e+05 8.741509753763587298e+00
1.218271354758591940e+01 3.918728853973199588e-01 2.008586335871921619e+05 9.236976310012334324e+00
1.211513842505732796e+01 4.105781021205336390e-01 1.640893799951581168e+05 9.747358415679292065e+00
1.205833121225639637e+01 4.298309904080357402e-01 1.345332211558397103e+05 1.027310508919293497e+01
1.201110579833462921e+01 4.496285650257437760e-01 1.106767754984717030e+05 1.081467886625442532e+01
1.197205468912633464e+01 4.699559988469519944e-01 9.133939413893409073e+04 1.137255620676230272e+01
1.194036835528505591e+01 4.907982053162442404e-01 7.561716942312648462e+04 1.194722791398716666e+01
1.191502946678456709e+01 5.121485229103250880e-01 6.278087841004147049e+04 1.253919956636524446e+01
1.189524128254906543e+01 5.339947408443023180e-01 5.227169857240534475e+04 1.314899196229072231e+01
1.188031699192469581e+01 5.563234359912855309e-01 4.363913258965079149e+04 1.377714157829808705e+01
1.186958918509393790e+01 5.791278654256759584e-01 3.651946114019420202e+04 1.443577259046482197e+01
1.186261704759789559e+01 6.024993559441133018e-01 3.061304050710700540e+04 1.536454752802897694e+01
1.185924260872081959e+01 6.265065971152695701e-01 2.569458526090341184e+04 1.632128235169428976e+01
1.185919726282043740e+01 6.511276216911140446e-01 2.159854404255238478e+04 1.730681876723803470e+01
1.186215750259913371e+01 6.763358323327000043e-01 1.818432923235768976e+04 1.832202381918940048e+01
1.186784420610987922e+01 7.021054596834581663e-01 1.533471343889739728e+04 1.936779065362845031e+01
1.187590934817163379e+01 7.284260318829099967e-01 1.295408319750076043e+04 2.044503930394845526e+01
1.188605945283950938e+01 7.552633481317819752e-01 1.096262829953022447e+04 2.155471750027293609e+01
1.189800922460364241e+01 7.826104632513384285e-01 9.292551520088665711e+03 2.269780150323932588e+01
1.191147042157976976e+01 8.104298227454959092e-01 7.890649863140380148e+03 2.387529696288302361e+01
1.192622437062004970e+01 8.387166896905159374e-01 6.711178005334905720e+03 2.508823980337720982e+01
1.194200332617558580e+01 8.674378252213363893e-01 5.718646364644202549e+03 2.633769713440698368e+01
1.195859175570522304e+01 8.965731556359041177e-01 4.880096100081072109e+03 2.762476818997955519e+01
1.197576184147991363e+01 9.261070925391389208e-01 4.171524769229036792e+03 2.895058529549641690e+01
1.199335125673807489e+01 9.560196114876395868e-01 3.570852272931470907e+03 3.031631486393824204e+01
1.201115148291377643e+01 9.862827279076237241e-01 3.061522798191641414e+03 3.172315842203910563e+01
1.202901295877261845e+01 1.016877185632027558e+00 2.628796280982602639e+03 3.317235366735251745e+01
1.204674790747141166e+01 1.047781126143179309e+00 2.260322413512473759e+03 3.466517555713969045e+01
1.206417942641276220e+01 1.078939099291077008e+00 1.946571523888481352e+03 3.653991490059781455e+01
1.208111744197750248e+01 1.110231616327554072e+00 1.679494240963202174e+03 3.863544504408607594e+01
1.209740816040069511e+01 1.141623490336432178e+00 1.451712448594584430e+03 4.079405912940318046e+01
1.211285910694382650e+01 1.173101170628008116e+00 1.257024515798709217e+03 4.301765623861628995e+01
1.212742388483307643e+01 1.204634933182006318e+00 1.090284138404990699e+03 4.530819262385189461e+01
1.214095622572456890e+01 1.236202023177280340e+00 9.470283294359735464e+02 4.766768342834608774e+01
1.215340853781748720e+01 1.267789420431413516e+00 8.238890769918904198e+02 5.009820445930537147e+01
1.216461865983394119e+01 1.299376288750745401e+00 7.177303080128388046e+02 5.260189401413786214e+01
1.217455289817579178e+01 1.330932996484002429e+00 6.261373825406745937e+02 5.518095476166130453e+01
1.218314177774115059e+01 1.362448143690589086e+00 5.469183235314436615e+02 5.783765567994318246e+01
1.219028873720257167e+01 1.393894122748614128e+00 4.783127989798632029e+02 6.057433405247753200e+01
1.219595166946301568e+01 1.425252646038797311e+00 4.187441370456382970e+02 6.339339752445498277e+01
1.219999788558939535e+01 1.456415011150244521e+00 3.671334820417711171e+02 6.707479529506359484e+01
1.220231990068508487e+01 1.487266162585125562e+00 3.223993188420006391e+02 7.088471044274245969e+01
1.220293260638990240e+01 1.517808361487380742e+00 2.835747883445138200e+02 7.480931946218252904e+01
1.220169647223811715e+01 1.548004697503533977e+00 2.497779365846844257e+02 7.885207510330336333e+01
1.219857217064920007e+01 1.577854058263865600e+00 2.202995403574849433e+02 8.301653405777683759e+01
1.219357100818871409e+01 1.607338334503644939e+00 1.945532716808254463e+02 8.730636008809447901e+01
1.218663457392553973e+01 1.636449785802779777e+00 1.720040018185372332e+02 9.172532725083320315e+01
1.217771719332379554e+01 1.665160680845793495e+00 1.522382012449930926e+02 9.627732321695329176e+01
1.216680332387370633e+01 1.693461011173326369e+00 1.348798890937265185e+02 1.011450032936114241e+02
1.215391276307452628e+01 1.721246801306028917e+00 1.196568973577225279e+02 1.071385124399222377e+02
1.213894007206841863e+01 1.748397414181409149e+00 1.063193568372762741e+02 1.133124504784212263e+02
1.212189329787868353e+01 1.774948472003483824e+00 9.459463702866625567e+01 1.196722490492946918e+02
1.210269002567468810e+01 1.800847950402427511e+00 8.427340932265850881e+01 1.262235033070906951e+02
1.208137358716551013e+01 1.826136175427257591e+00 7.516643645062323742e+01 1.329719768431628211e+02
1.205791965192232063e+01 1.850787694604201006e+00 6.711251136454622213e+01 1.399236067563007850e+02
1.203228851938229660e+01 1.874809631472431404e+00 5.998035515535478623e+01 1.472092459613224662e+02
1.200458982463712232e+01 1.898096227264883584e+00 5.367412130325998021e+01 1.561892781475373226e+02
1.197476166095877659e+01 1.920549136023102843e+00 4.810249857849404975e+01 1.654396456614576607e+02
1.194281976751840801e+01 1.942198198997959535e+00 4.316815557523140967e+01 1.749684866909973096e+02
1.190874809765669617e+01 1.963063365621963818e+00 3.878283560981281397e+01 1.847841844164771317e+02
1.187248723891040925e+01 1.983112297817512415e+00 3.488225055773905581e+01 1.948953743858876351e+02
1.183414528756285833e+01 2.002381856136434823e+00 3.140226287901849034e+01 2.056776381286871640e+02
1.179369009735003182e+01 2.020752125011330058e+00 2.830867939751318474e+01 2.185500679998290821e+02
1.175126090749178154e+01 2.038174113863683079e+00 2.555867290996822661e+01 2.318100101287690791e+02
1.170679912415937629e+01 2.054696372925988612e+00 2.310304179288111825e+01 2.454691302034501348e+02
1.166029233154461586e+01 2.070322624844615156e+00 2.090696394446086614e+01 2.595394450962548945e+02
1.161171228669558531e+01 2.085040129855785462e+00 1.893977237043164408e+01 2.743365242431269735e+02
1.156121456353467813e+01 2.098801185891376431e+00 1.717998950081884857e+01 2.920442155325129079e+02
1.150891528570564759e+01 2.111574416068191073e+00 1.560740531006206488e+01 3.102849800256862522e+02
1.145469855870384102e+01 2.123367207880785479e+00 1.419643003155837135e+01 3.290748653844203204e+02
1.139860344697101802e+01 2.134203132185170215e+00 1.292843428599748279e+01 3.484304023700826747e+02
1.134093993848097881e+01 2.143911660043289924e+00 1.179719361773485531e+01 3.705228417655467865e+02
1.128186947669611939e+01 2.151588409861341145e+00 1.082400385186820735e+01 3.943018483294013095e+02
1.122136751512560870e+01 2.156618048308105884e+00 1.000741569599780512e+01 4.204493373815283803e+02
1.115914881599881703e+01 2.156970890009113351e+00 9.390268312907386061e+00 4.511712698728658779e+02
