# Radius[km]  Mass[Solar Mass] Lambda Central_pressure[MeV fm-3]
1.880005179735344001e+01 1.704882964024253822e-01 1.316572956261423603e+07 2.146418143067729822e+00
1.798814411656970691e+01 1.791703994396343369e-01 1.028565717654066905e+07 2.318731391921671658e+00
1.729865706508488188e+01 1.881839603608099210e-01 8.090786014991963282e+06 2.500837884883003515e+00
1.670841481775817527e+01 1.975192873790758974e-01 6.402370992740234360e+06 2.693355467959896110e+00
1.619859248973619614e+01 2.071804875293564996e-01 5.095537903656188399e+06 2.897531881316204760e+00
1.575544077816636879e+01 2.171662639933023831e-01 4.075382022332500201e+06 3.112983454553308160e+00
1.536761642764404456e+01 2.274788570418951883e-01 3.273313534893503413e+06 3.340842912892963756e+00
1.502658925085635921e+01 2.381172052879789724e-01 2.640275408646328375e+06 3.581713306738171010e+00
1.472490477758181449e+01 2.490872689522892480e-01 2.137697775655593257e+06 3.835589786150412905e+00
1.445719840627954866e+01 2.603905863530249776e-01 1.736986246826309245e+06 4.104397853466453583e+00
1.421841756932166589e+01 2.720335392914320916e-01 1.416092810563353123e+06 4.387427428631237802e+00
1.400483004784544505e+01 2.840184670009305856e-01 1.157944739343979862e+06 4.686509441646053098e+00
1.381325946488450462e+01 2.963489249940631787e-01 9.495433918926293263e+05 5.001603125686299833e+00
1.364087712077053816e+01 3.090311834731330198e-01 7.808499272268814966e+05 5.334018996108797595e+00
1.348533939282081029e+01 3.220691646499487804e-01 6.438239028523011366e+05 5.684288706565498117e+00
1.334488767611675542e+01 3.354659859146856826e-01 5.320013683942813659e+05 6.053447500054798702e+00
1.321760488173174863e+01 3.492284184644163791e-01 4.406978336818571552e+05 6.442286222610503543e+00
1.310216887555738374e+01 3.633616169223986003e-01 3.658397210249031195e+05 6.851921246706995205e+00
1.299737429190027882e+01 3.778647240035813426e-01 3.043238556809557485e+05 7.283029531850451654e+00
1.290208472715042021e+01 3.927455096349024566e-01 2.536763626135122031e+05 7.737231284278562882e+00
1.281531426950953012e+01 4.080101162360530997e-01 2.118610240576480282e+05 8.214645826441531185e+00
1.273624931149116790e+01 4.236568858635465507e-01 1.772610650092037977e+05 8.717897486190674172e+00
1.266418360726164494e+01 4.396943826837009239e-01 1.485584197912836680e+05 9.246529576633607306e+00
1.259840257098428751e+01 4.561216305378228419e-01 1.247292768561553967e+05 9.803237693698225286e+00
1.253839183367154853e+01 4.729395253931641951e-01 1.048924982387716154e+05 1.038850059380865076e+01
1.248357264637669850e+01 4.901585149645391604e-01 8.835899478476110380e+04 1.100344239783921729e+01
1.243345458023051364e+01 5.077728233691041204e-01 7.452047953763208352e+04 1.165098913379127410e+01
1.238763451371205448e+01 5.258461560004664692e-01 6.292384347659454943e+04 1.239940994949519748e+01
1.234584917163824613e+01 5.445165957376849608e-01 5.313529523128972505e+04 1.319378313538627445e+01
1.230815041637167973e+01 5.637650404453332653e-01 4.489041998679254903e+04 1.401097604470205127e+01
1.227433069301642377e+01 5.835746638076835247e-01 3.795328237220958545e+04 1.485164421288407333e+01
1.224421570916228319e+01 6.039272173308282143e-01 3.211833881884550647e+04 1.571646200674656946e+01
1.221745802895602928e+01 6.247948633440193467e-01 2.720758770341829586e+04 1.660612316543962308e+01
1.219392975098504373e+01 6.461669175434897605e-01 2.307961547471761878e+04 1.752134135695257555e+01
1.217333105885322553e+01 6.680158117733135947e-01 1.960598058573446906e+04 1.846285075060392344e+01
1.215529800549889750e+01 6.903286345098834653e-01 1.667631973905453924e+04 1.943140660597688907e+01
1.213962197535649779e+01 7.130853647817400054e-01 1.420690768238148303e+04 2.042778587877321783e+01
1.212607056140834594e+01 7.362590609474360948e-01 1.212030746925548192e+04 2.145278784407120654e+01
1.211429607425768040e+01 7.598445189024722879e-01 1.035552519032226883e+04 2.250723473748776016e+01
1.210413948022617525e+01 7.838159406490458059e-01 8.861380573606218604e+03 2.359197241475901308e+01
1.209538331942328071e+01 8.081563762211505519e-01 7.593689865431199905e+03 2.470787103026851739e+01
1.208771959240677951e+01 8.328430584011595750e-01 6.516981290225784505e+03 2.585582573506730952e+01
1.208109072961039665e+01 8.578977184594605010e-01 5.599106240867296037e+03 2.724703483281695071e+01
1.207540607270163591e+01 8.834214345121812473e-01 4.814384295027872213e+03 2.884059301419608445e+01
1.207076892206821483e+01 9.094190280669283144e-01 4.142348777169981076e+03 3.047992886985493755e+01
1.206711341832301443e+01 9.358474703578247844e-01 3.567696269768964612e+03 3.216635744149507303e+01
1.206423201729168682e+01 9.626742020989375037e-01 3.075718093340980431e+03 3.390123154763191593e+01
1.206212227667828607e+01 9.898959606350483664e-01 2.654381825007507814e+03 3.568594286879798716e+01
1.206059104446180008e+01 1.017465191138314795e+00 2.293288805361982213e+03 3.752192306392064580e+01
1.205959016825996954e+01 1.045366993210244289e+00 1.983656898213632530e+03 3.941064491876956311e+01
1.205889196719541800e+01 1.073561902060617301e+00 1.717814263137403714e+03 4.135362352739535652e+01
1.205843581983340584e+01 1.102033819659823610e+00 1.489428584364274002e+03 4.335241750750703460e+01
1.205801715399435103e+01 1.130744537244892989e+00 1.292822662365142151e+03 4.540863025076333059e+01
1.205760403699791006e+01 1.159683316185373902e+00 1.123580013942656024e+03 4.752391120898059285e+01
1.205701729506452047e+01 1.188816049416704379e+00 9.775009140401467675e+02 4.969995721728939486e+01
1.205619109247541410e+01 1.218109777793927151e+00 8.514274962252009118e+02 5.200434088107063246e+01
1.205504319522544066e+01 1.247563412838074148e+00 7.424318225095438493e+02 5.494238977230220655e+01
1.205352882637425438e+01 1.277136793137436444e+00 6.481045858774029966e+02 5.796483912454751675e+01
1.205165889822724345e+01 1.306809837435628285e+00 5.664246935635949285e+02 6.107411348487267588e+01
1.204936027660235354e+01 1.336552868534068184e+00 4.956577508368424674e+02 6.427270704958982606e+01
1.204651506536054129e+01 1.366343802743137381e+00 4.341877095128414794e+02 6.756318566505049716e+01
1.204309745649606356e+01 1.396144566717677726e+00 3.808093479344845491e+02 7.094818888591490236e+01
1.203902569621486940e+01 1.425933332992705971e+00 3.343533510614726083e+02 7.443043209254898329e+01
1.203409482634978467e+01 1.455691960316043865e+00 2.938557221653759939e+02 7.801270866924681968e+01
1.202848827819831357e+01 1.485368259486965270e+00 2.585929581460397344e+02 8.169789224502630987e+01
1.202186800823930568e+01 1.514972348715161843e+00 2.277651590883010613e+02 8.548893899879588787e+01
1.201432498408814986e+01 1.544448324309285914e+00 2.008153213532177972e+02 8.939109466363190393e+01
1.200586568706972557e+01 1.573745530075009169e+00 1.772765785198696449e+02 9.441318833414807443e+01
1.199631250600869237e+01 1.602800256529414380e+00 1.566659976064275384e+02 9.957955020330133777e+01
1.198577092019899126e+01 1.631593076846631130e+00 1.386459767768678830e+02 1.048943246209393436e+02
1.197412419959093377e+01 1.660097868572071311e+00 1.228404164879661948e+02 1.103617749904211394e+02
1.196135303022255592e+01 1.688296045219973784e+00 1.089646572625548231e+02 1.159862871886326730e+02
1.194740705280894488e+01 1.716168784304567652e+00 9.676035162418119739e+01 1.217723730842468939e+02
1.193224200000752333e+01 1.743691331622217344e+00 8.602403655198281740e+01 1.277246741570531725e+02
1.191585231166746617e+01 1.770850190338509877e+00 7.654330469752061106e+01 1.338479652212570556e+02
1.189816463496987531e+01 1.797628422879848920e+00 6.818111120599185426e+01 1.401471582557386739e+02
1.187914971274101283e+01 1.823967582920308361e+00 6.079590053048266185e+01 1.478592939878313928e+02
1.185885561896924223e+01 1.849745602431567715e+00 5.428479744928534245e+01 1.560857521900234985e+02
1.183722267716216336e+01 1.874963795614096984e+00 4.853803684206947366e+01 1.645485294224561414e+02
1.181424769873087222e+01 1.899605039364897996e+00 4.345371525447984595e+01 1.732544143519748445e+02
1.178989459669059414e+01 1.923667802532249782e+00 3.894603485577567170e+01 1.822103906614488835e+02
1.176408891269673518e+01 1.947133017030491686e+00 3.494629779450425389e+01 1.914236426519380245e+02
1.173684143457689011e+01 1.970013814372649774e+00 3.138573748905364624e+01 2.009015610057930132e+02
1.170816979589146634e+01 1.992267467184203111e+00 2.821821448905950902e+01 2.109485630329759545e+02
1.167804809988250803e+01 2.013696256503862525e+00 2.541321025954477619e+01 2.230982579229540193e+02
1.164633625886939505e+01 2.034065808145208543e+00 2.294091041491975247e+01 2.355969735024620206e+02
1.161281717401551816e+01 2.053386633687559470e+00 2.074795704046737299e+01 2.484547359855588695e+02
1.157745115273187686e+01 2.071695507584992768e+00 1.879872822999118398e+01 2.616818596063882865e+02
1.154009487272062984e+01 2.088989764575885921e+00 1.705866714550762353e+01 2.752889548930450019e+02
1.150090125436372013e+01 2.105055497787064134e+00 1.551635377637509805e+01 2.912278356514924553e+02
1.145963703633787389e+01 2.119403976986482530e+00 1.416799253755401189e+01 3.081567823181270001e+02
1.141574632735049910e+01 2.131944601946874407e+00 1.298343085846903122e+01 3.255720418257102438e+02
1.136925893179136438e+01 2.142485866451621312e+00 1.194830000987964524e+01 3.451822005634888910e+02
1.131996663091927147e+01 2.150142157093733353e+00 1.107499702689928966e+01 3.662404879188188147e+02
1.126784130142692852e+01 2.153985267454224140e+00 1.037515199384303877e+01 3.905986680697997713e+02
