# Radius[km]  Mass[Solar Mass] Lambda Central_pressure[MeV fm-3]
1.903039197519749948e+01 1.634485078082266174e-01 1.461446869204774313e+07 2.225254761764585254e+00
1.810844841422772333e+01 1.718606302609194669e-01 1.127361056929980032e+07 2.417331757529987524e+00
1.733037727874052436e+01 1.806330169797677188e-01 8.760557673409596086e+06 2.621475087358357214e+00
1.666736519603566791e+01 1.897617237602251816e-01 6.849740720490936190e+06 2.838523384713010245e+00
1.609796564034548894e+01 1.992461764743036490e-01 5.387647323637891561e+06 3.068854434987114743e+00
1.560465269288496692e+01 2.090932450015452193e-01 4.257914236852190457e+06 3.313148756551164809e+00
1.517482246197838691e+01 2.193004547563699447e-01 3.381030801500288304e+06 3.572114231343647361e+00
1.479828068551263165e+01 2.298721873295177798e-01 2.696189039274638053e+06 3.846486142673509523e+00
1.446652392201728610e+01 2.408160578619214232e-01 2.158512890452984720e+06 4.137027262322250820e+00
1.417301173284579896e+01 2.521374094286135681e-01 1.734230375208201585e+06 4.444527991754487317e+00
1.391222657739801960e+01 2.638430739840085248e-01 1.398098221812840551e+06 4.770002711186939415e+00
1.367969327721321093e+01 2.759391563300341299e-01 1.130560854331020033e+06 5.114177047848311730e+00
1.347183322392109162e+01 2.884388358386614781e-01 9.168675298146005953e+05 5.477868716666403515e+00
1.328547173385131330e+01 3.013508757567814333e-01 7.456163082948504016e+05 5.861987977034697650e+00
1.311811597491118775e+01 3.146822361126997980e-01 6.079172565335755935e+05 6.267475227020271156e+00
1.296751582052194074e+01 3.284447530020389583e-01 4.967745077105092932e+05 6.695301570134755131e+00
1.283180807780410682e+01 3.426508376807533840e-01 4.068466420273875701e+05 7.146469455696374595e+00
1.270941405675136870e+01 3.573134133840226712e-01 3.339061393794177566e+05 7.622013392585222036e+00
1.259896488977515894e+01 3.724413715695680804e-01 2.745766890483035822e+05 8.123190323680676173e+00
1.249871972586948843e+01 3.882149011504668623e-01 2.258121212032627373e+05 8.725843436255139807e+00
1.240810488116744459e+01 4.047815201121423012e-01 1.855470570170702995e+05 9.346618278328154616e+00
1.232719345145939904e+01 4.221328648788718052e-01 1.524499083230062097e+05 9.986059768814358861e+00
1.225569725058085879e+01 4.402359551107462021e-01 1.253361929915283545e+05 1.064472921229533142e+01
1.219311521513079555e+01 4.590671136309635303e-01 1.031678987168792810e+05 1.132320479173522365e+01
1.213884652531585040e+01 4.786037991026719229e-01 8.504515377401842852e+04 1.202208207601232992e+01
1.209238880419402662e+01 4.988309279939158736e-01 7.023403291599445220e+04 1.274197454271212493e+01
1.205292735322059272e+01 5.197151561537313169e-01 5.811760471916004462e+04 1.348351411664053678e+01
1.202000991896216853e+01 5.412516892113119482e-01 4.819723295434701868e+04 1.424735172453046061e+01
1.199289981704596286e+01 5.634053760966137858e-01 4.005586455856336397e+04 1.503415786642805152e+01
1.197108812298968061e+01 5.861684446772783552e-01 3.336451458498780994e+04 1.584462320426067627e+01
1.195401886571842631e+01 6.095132334136956764e-01 2.785536382339872944e+04 1.667945916810303686e+01
1.194107192689555319e+01 6.334290084960758627e-01 2.330736285565541766e+04 1.753939858067356994e+01
1.193189707494037144e+01 6.578914376717699408e-01 1.954538348826322908e+04 1.842519630060963820e+01
1.192602189739993790e+01 6.828812027730268852e-01 1.642713403720260249e+04 1.933762988508563652e+01
1.192299373414779673e+01 7.083835566366872838e-01 1.383470537083053568e+04 2.027750027235623875e+01
1.192248156408128956e+01 7.343767097226081564e-01 1.167632290682649727e+04 2.124563248482349920e+01
1.192417146776010206e+01 7.608506346908036067e-01 9.875171740593170398e+03 2.224287635324523649e+01
1.192757487933528715e+01 7.877738877449347310e-01 8.366391649421353577e+03 2.327010726272018104e+01
1.193275722321725141e+01 8.152975065480773109e-01 7.095670895644167103e+03 2.469968883098016832e+01
1.193992433438409861e+01 8.435681795392243609e-01 6.020721638151057959e+03 2.617570162150484236e+01
1.194893708916586306e+01 8.725491141597303546e-01 5.112254500869888943e+03 2.769609799516909376e+01
1.195978246859704974e+01 9.022074756474302015e-01 4.344768918348878287e+03 2.926221256266530446e+01
1.197224552565745093e+01 9.325023405139091226e-01 3.696693765437647471e+03 3.087542006631949931e+01
1.198620578612935361e+01 9.633960770942044949e-01 3.149160198831666094e+03 3.253713658684635135e+01
1.200147795011097962e+01 9.948661487730138253e-01 2.686331719396144308e+03 3.424882078639110006e+01
1.201784054130951240e+01 1.026872600280202441e+00 2.294677629201823947e+03 3.601197518894956318e+01
1.203516034903623755e+01 1.059376795708709906e+00 1.963015354369943225e+03 3.782814749929057996e+01
1.205324440995545743e+01 1.092347222331266465e+00 1.681776812142931249e+03 3.969893196153790882e+01
1.207183048176145235e+01 1.125763589898695516e+00 1.442804207541186770e+03 4.162597075860495721e+01
1.209083365269582266e+01 1.159571280886100952e+00 1.239703051448263295e+03 4.361095545371023263e+01
1.211012956592208312e+01 1.193760439406170493e+00 1.066768352951245106e+03 4.565562847523889189e+01
1.212955517291624119e+01 1.228273238599313366e+00 9.191715385896359294e+02 4.776178464625438380e+01
1.214879319570971461e+01 1.263096094988596541e+00 7.931611588263517660e+02 4.993127276000187464e+01
1.216795129195324066e+01 1.298184869510444761e+00 6.854206541994650479e+02 5.216599720278725982e+01
1.218672614720450120e+01 1.333511651271907406e+00 5.930410631342002716e+02 5.446791962565598055e+01
1.220505930574358722e+01 1.369047601334030473e+00 5.138358785824342476e+02 5.683906066633893062e+01
1.222281136793256806e+01 1.404731809629796491e+00 4.458004344847078073e+02 5.969244728379619858e+01
1.223978225732138725e+01 1.440394975299090330e+00 3.875045289378246025e+02 6.302017345537183246e+01
1.225584461016913274e+01 1.475982296165889940e+00 3.374246211826056765e+02 6.644796407906471813e+01
1.227085070120658372e+01 1.511473520491533495e+00 2.943279271506602299e+02 6.997882808471496219e+01
1.228483713126994026e+01 1.546835855723867281e+00 2.571854345995838003e+02 7.361586488043545273e+01
1.229755303508417796e+01 1.582044830073251251e+00 2.250537276168992946e+02 7.736226707328580687e+01
1.230899298545956455e+01 1.617062525153524000e+00 1.972404775150386342e+02 8.122132327175729927e+01
1.231912205312158015e+01 1.651869637792863665e+00 1.731196970589685122e+02 8.519642097252793178e+01
1.232776287799914883e+01 1.686440473290319542e+00 1.521402642420628695e+02 8.929104953402188016e+01
1.233504976928148977e+01 1.720741505723585085e+00 1.338922921430720976e+02 9.350880323938410754e+01
1.234065585505865847e+01 1.754768918392226595e+00 1.179590029146734622e+02 9.785338445155790055e+01
1.234480996246167983e+01 1.788468164866563903e+00 1.040567784471880231e+02 1.023286068632354926e+02
1.234720722230980705e+01 1.821849655929100420e+00 9.187966773788282637e+01 1.069383988445346318e+02
1.234779968060585809e+01 1.854490773679056348e+00 8.131954712527114282e+01 1.129796586681251966e+02
1.234594073682380255e+01 1.886009904288757033e+00 7.219136798670386668e+01 1.192118829206273318e+02
1.234146058258482981e+01 1.916440167031831399e+00 6.425701417477012001e+01 1.256315096435086218e+02
1.233412916998342901e+01 1.945772834080916391e+00 5.732746566132644261e+01 1.322441740136305270e+02
1.232405348469793616e+01 1.974004315484456873e+00 5.125831000018653327e+01 1.390556806571592574e+02
1.231108711463164163e+01 2.001187964856372847e+00 4.591456283472793132e+01 1.460720087448920026e+02
1.229516424402140373e+01 2.027341165788391297e+00 4.119074048633510188e+01 1.532993172407997235e+02
1.227623880512921950e+01 2.051954007037054328e+00 3.707188014827261213e+01 1.623072829261294032e+02
1.225352268080834861e+01 2.074407184484444500e+00 3.351863683785072823e+01 1.716340121365859090e+02
1.222658615122167980e+01 2.094743423220338574e+00 3.042383178189124138e+01 1.812411953268384650e+02
1.219529423623425757e+01 2.113037545167480769e+00 2.770883978962542571e+01 1.913914570269582214e+02
1.215954816592875432e+01 2.128333246843287618e+00 2.539962219635335572e+01 2.033092316288287407e+02
1.211821415782376121e+01 2.139952818890086039e+00 2.346575085256007043e+01 2.158823138383864659e+02
1.207098588016401131e+01 2.147123518531290021e+00 2.190091641247011367e+01 2.302610149099432704e+02
1.201646864097069312e+01 2.149634229736414603e+00 2.063576059438582533e+01 2.468283632629072599e+02
