# Radius[km]  Mass[Solar Mass] Lambda Central_pressure[MeV fm-3]
1.916461167841114843e+01 1.533966400565289212e-01 1.641099413523054123e+07 2.373218523399503344e+00
1.810296267585001928e+01 1.616097825103690599e-01 1.246277206554082781e+07 2.572733786979030324e+00
1.721830061449360372e+01 1.702947282918829686e-01 9.540550263685019687e+06 2.783169065620393567e+00
1.647511550225602051e+01 1.794515668274446474e-01 7.354696019761682488e+06 3.004983341300614175e+00
1.584547868529188364e+01 1.890711520377038601e-01 5.705971024340583012e+06 3.238662959551844356e+00
1.530913254364308962e+01 1.991498990547286019e-01 4.454415157177054323e+06 3.484722849641007869e+00
1.484947622884292251e+01 2.096872877715055261e-01 3.491865389020478819e+06 3.743707779549840353e+00
1.445377190546038904e+01 2.206759083730234772e-01 2.753959358346350491e+06 4.016193646721067267e+00
1.411100856863266273e+01 2.321235984633544247e-01 2.181739799414050765e+06 4.302788805405572070e+00
1.381360999709941062e+01 2.440172901029336316e-01 1.736260685152304359e+06 4.604135431319343219e+00
1.355478650117841610e+01 2.563587769268662053e-01 1.387738118069079937e+06 4.920910924195414538e+00
1.332830628605017509e+01 2.691563013604282295e-01 1.113519137539646123e+06 5.253829348694114998e+00
1.313030112145229289e+01 2.823967333555859049e-01 8.971488552660032874e+05 5.603642914012302079e+00
1.295664395790176648e+01 2.960823292966533460e-01 7.255019235149197048e+05 5.971143492408034881e+00
1.280391804899341501e+01 3.102160169977179471e-01 5.886185329576694639e+05 6.357164176729605209e+00
1.266973744825041237e+01 3.247934451303259862e-01 4.793652768432848970e+05 6.762906230034215760e+00
1.255180857782006321e+01 3.398075269347313188e-01 3.917301465409625671e+05 7.189359950145366440e+00
1.244795752037606995e+01 3.552682104018411446e-01 3.209053277470920002e+05 7.637233499180771545e+00
1.235649323264612676e+01 3.711633969462339588e-01 2.637310350246225134e+05 8.107555981640963694e+00
1.227617458930824590e+01 3.874858856416464326e-01 2.174061496271241340e+05 8.601406621251708629e+00
1.220545417702092017e+01 4.042369498247261328e-01 1.797123006292145874e+05 9.119916544810257264e+00
1.214334268918372040e+01 4.214171918603750733e-01 1.489606721274126030e+05 9.664270599739927192e+00
1.208881781158325630e+01 4.390111463542484826e-01 1.237719020389664947e+05 1.023659828389459747e+01
1.204110312715202902e+01 4.570134545114990510e-01 1.031352655869270529e+05 1.083834668528773193e+01
1.199928543212023691e+01 4.754247547764662851e-01 8.613157415346782363e+04 1.147009424634172348e+01
1.196269551723531066e+01 4.942247959486201769e-01 7.209658794386441878e+04 1.213327815781261343e+01
1.193087359156810301e+01 5.134053221584828908e-01 6.050363026379370422e+04 1.283137354060812285e+01
1.190305050989864810e+01 5.329596146351971431e-01 5.088627817425264220e+04 1.356503946645890757e+01
1.187893904915851628e+01 5.528635483317594357e-01 4.289314820751675870e+04 1.433520726088445940e+01
1.185787416266188998e+01 5.731058539379563221e-01 3.623589790605149756e+04 1.514731058518428064e+01
1.183951459758876901e+01 5.936731123095446705e-01 3.067910235797804125e+04 1.599981672927500398e+01
1.182346837597244971e+01 6.145448301111628986e-01 2.602896348389073682e+04 1.693307991124589051e+01
1.180955417708274524e+01 6.359009835708874236e-01 2.209950922800155604e+04 1.798149298416041475e+01
1.179783007263124261e+01 6.577799780896722570e-01 1.877955194194684373e+04 1.906067730749895617e+01
1.178808364051327118e+01 6.801682561707915742e-01 1.596965394248199118e+04 2.017153602705121784e+01
1.178027449411575489e+01 7.030336853176546441e-01 1.359542032373862639e+04 2.131499879621724958e+01
1.177414246957001787e+01 7.263537922046273687e-01 1.158806940207441949e+04 2.249202255401417361e+01
1.176964077675782683e+01 7.501253010696758983e-01 9.889518198481502623e+03 2.370359232591744103e+01
1.176645629015125216e+01 7.743143909449193840e-01 8.451848748114065529e+03 2.495072204820722206e+01
1.176442792720422936e+01 7.988985599447055996e-01 7.232756043559023055e+03 2.623445541650948698e+01
1.176335410839060636e+01 8.238720950097058182e-01 6.197249006845567237e+03 2.755586675924207896e+01
1.176311359020306746e+01 8.491950103797645255e-01 5.318047063221083590e+03 2.891606193669672820e+01
1.176345540131092804e+01 8.748657851962019505e-01 4.569146762899620626e+03 3.031617926650938699e+01
1.176427190578815463e+01 9.008468209015568773e-01 3.931415540770991811e+03 3.175739047629331679e+01
1.176537356017883340e+01 9.271327550244288229e-01 3.386882176354979947e+03 3.324090168423244052e+01
1.176674536907288804e+01 9.537600995790724845e-01 2.920825127598117433e+03 3.508686585131462721e+01
1.176839679275225947e+01 9.808376067561230816e-01 2.520039090184299312e+03 3.710721081426768819e+01
1.177050397864968190e+01 1.008351291423579044e+00 2.175509442800164834e+03 3.918685353151629158e+01
1.177295475804602631e+01 1.036271838785394417e+00 1.879732605285344562e+03 4.132753441062897792e+01
1.177566656493475961e+01 1.064566588796803437e+00 1.625299470052583501e+03 4.353104494067872565e+01
1.177862582492066679e+01 1.093195680783706436e+00 1.406875598770717488e+03 4.579922919150117622e+01
1.178168769186324383e+01 1.122138471047209762e+00 1.218792928332506108e+03 4.813398535695631608e+01
1.178471086945211077e+01 1.151370187384914034e+00 1.057198534658811468e+03 5.053726734348551730e+01
1.178767295452987440e+01 1.180833571242890567e+00 9.178980001069236323e+02 5.301108640529312765e+01
1.179041201741384626e+01 1.210536320241272001e+00 7.977871939268734423e+02 5.555751282752116538e+01
1.179281892856622704e+01 1.240412985789504763e+00 6.940876682509193643e+02 5.817867765882581921e+01
1.179487361316681948e+01 1.270460953626928680e+00 6.045632065792698313e+02 6.087677449480535330e+01
1.179642633205222779e+01 1.300637334212666252e+00 5.271541670511214761e+02 6.367841754770820017e+01
1.179744562350791703e+01 1.330924767062083403e+00 4.601223450051919599e+02 6.728662628624522313e+01
1.179795825911336671e+01 1.361305820660643651e+00 4.020535117310477062e+02 7.100073707574291859e+01
1.179779883381560701e+01 1.391734421893138895e+00 3.516694018099617551e+02 7.482385817440099629e+01
1.179713031349917962e+01 1.422196775523641099e+00 3.079780562156777250e+02 7.875918906876601966e+01
1.179570916166002448e+01 1.452656027227933855e+00 2.699879460247474867e+02 8.281002315131163982e+01
1.179358196180771579e+01 1.483075982709886720e+00 2.369708687468861967e+02 8.697975047660712278e+01
1.179068038768555127e+01 1.513430127952552606e+00 2.082152161281860856e+02 9.127186059837980281e+01
1.178682933560307688e+01 1.543694599047045868e+00 1.831360201952666387e+02 9.568994548984646542e+01
1.178207586568188781e+01 1.573834456969250173e+00 1.612472616288837060e+02 1.002377025497571452e+02
1.177632711014601341e+01 1.603827305520672875e+00 1.421300742672785020e+02 1.049189376966675411e+02
1.176950552568865760e+01 1.633627752172809089e+00 1.253949227957945567e+02 1.100708425658354486e+02
1.176156649577107416e+01 1.663098504760986751e+00 1.107994441783152979e+02 1.162366503674153932e+02
1.175250459027797056e+01 1.692203651882853377e+00 9.804284199926605936e+01 1.225834265495224855e+02
1.174218712863242153e+01 1.720887373484144556e+00 8.687934137459907902e+01 1.291164825905231908e+02
1.173050437048963524e+01 1.749153291436719604e+00 7.708830285274821392e+01 1.358412858623296415e+02
1.171751688076131792e+01 1.776970602482453643e+00 6.848842710431311787e+01 1.427634642059231282e+02
1.170318411430916328e+01 1.804334128010574689e+00 6.092383694982819975e+01 1.498888106411718866e+02
1.168737891626777881e+01 1.831226099257837525e+00 5.425139357130987605e+01 1.572232882148825297e+02
1.167017306857749404e+01 1.857606150443040116e+00 4.836462055825343498e+01 1.647730349911437884e+02
1.165145792131221647e+01 1.883406466804159463e+00 4.317411148908689711e+01 1.738639297965116270e+02
1.163118668130841904e+01 1.908391119429893035e+00 3.861443205774452281e+01 1.836284373701507775e+02
1.160918418374903283e+01 1.932528182954801999e+00 3.460136155701169258e+01 1.936795362841482131e+02
1.158540468360072140e+01 1.955821877800545394e+00 3.105742547552752697e+01 2.040256380836585492e+02
1.155979616434918356e+01 1.978276323724891483e+00 2.791846292961304243e+01 2.146754011953080976e+02
1.153231841978072936e+01 1.999927693406245544e+00 2.513171698026013345e+01 2.256377381732430081e+02
1.150296331010789785e+01 2.020702226383225941e+00 2.265256916443822277e+01 2.378736443879282376e+02
1.147171590889560910e+01 2.040366663934514158e+00 2.046389264649138440e+01 2.517514856959475935e+02
1.143840298108427866e+01 2.058824813657781139e+00 1.852923009618556094e+01 2.660366459713340532e+02
1.140288863729853119e+01 2.076113447656950495e+00 1.681101872184713386e+01 2.807410801527193485e+02
1.136511427951955611e+01 2.092244828550007263e+00 1.527876211417695984e+01 2.958770940599097230e+02
1.132514163018909059e+01 2.107169972164608662e+00 1.391288124540775861e+01 3.134879179617499858e+02
1.128287697440182491e+01 2.120641011862056224e+00 1.270412144282509992e+01 3.322595866246732044e+02
1.123818513111827500e+01 2.132682638005769071e+00 1.162878523589757229e+01 3.515822096129729175e+02
1.119089255809909567e+01 2.143304785808981094e+00 1.066750056828991511e+01 3.721604576334145804e+02
1.114119971346225135e+01 2.152360175882287674e+00 9.813571016478132236e+00 3.957087922197975445e+02
1.108892637067159193e+01 2.159769341860708458e+00 9.055078492590281414e+00 4.199482777650400749e+02
1.103385926827414920e+01 2.165560735951685967e+00 8.376313585610930090e+00 4.464568981053664629e+02
1.097625088704987562e+01 2.169553369180068803e+00 7.776482176098800991e+00 4.755700139110953160e+02
1.091581292736747777e+01 2.171749784901106928e+00 7.242261567008165812e+00 5.064566872116305944e+02
1.085275560104641279e+01 2.172049673908335254e+00 6.770974161667404623e+00 5.409948383462626680e+02
