# Radius[km]  Mass[Solar Mass] Lambda Central_pressure[MeV fm-3]
1.892184529362531009e+01 1.578723447343824138e-01 1.513646487261963077e+07 2.318209752377370148e+00
1.792608025896307566e+01 1.665970735552321225e-01 1.151325301801571622e+07 2.520095552014155249e+00
1.708844658627102930e+01 1.759475347736622064e-01 8.796423899707682431e+06 2.755203439165024193e+00
1.638101202509271914e+01 1.859424439434941845e-01 6.751610971508227289e+06 2.997154073549338271e+00
1.578333851249871600e+01 1.965495092407251732e-01 5.207293370191967115e+06 3.246146611351393485e+00
1.527720059854678070e+01 2.077519130926103463e-01 4.039758574952624273e+06 3.502386005138761860e+00
1.484748665580351457e+01 2.195325924292473585e-01 3.150690154748635367e+06 3.766083172564389514e+00
1.448198289407243600e+01 2.318644860131298113e-01 2.471641861910260282e+06 4.037455169978646730e+00
1.417010082314985198e+01 2.447386535912905725e-01 1.949392029539879179e+06 4.316725371094390695e+00
1.390392681706313560e+01 2.581455369312332659e-01 1.545936023027195362e+06 4.604123650851927430e+00
1.367578687742865817e+01 2.720572582121301153e-01 1.232410185870445566e+06 4.899886574635409886e+00
1.348052838146504406e+01 2.864786293168919418e-01 9.874739970965033863e+05 5.204257592996250459e+00
1.331295693591822804e+01 3.013901842806347986e-01 7.949523649069163948e+05 5.517487242043924489e+00
1.316915953342420664e+01 3.167818765607914311e-01 6.429620620244505117e+05 5.839833349669096840e+00
1.304580201028972475e+01 3.326471741799211790e-01 5.223137345460802317e+05 6.171561247768824643e+00
1.294000055624012191e+01 3.489779774984709815e-01 4.260341890360333491e+05 6.512943990648493831e+00
1.284961892248096227e+01 3.657659317940648025e-01 3.489292721837161807e+05 6.864262579780258555e+00
1.277226921437307183e+01 3.830025867394362682e-01 2.868139737618742511e+05 7.225806195103081642e+00
1.270640523194694538e+01 4.006835826682138002e-01 2.365987948672126222e+05 7.597872433054608798e+00
1.265032671161989164e+01 4.188028030802885548e-01 1.958020696252730850e+05 7.980767551530974835e+00
1.260302884742446849e+01 4.373467881695716764e-01 1.625663470254816348e+05 8.374806721976014501e+00
1.256344026887740029e+01 4.563135526918523088e-01 1.353856157997871051e+05 8.780314288807538503e+00
1.253003188634546561e+01 4.756993807904095761e-01 1.130370482195847726e+05 9.197624036394046243e+00
1.250285627472077188e+01 4.954868951146891853e-01 9.466708141463593347e+04 9.627079463801825554e+00
1.248022679646431854e+01 5.156842721631206272e-01 7.945498230890303967e+04 1.006903406753838581e+01
1.246187329382829034e+01 5.362762255675618261e-01 6.684401419088052353e+04 1.056019280735847232e+01
1.244775427283109437e+01 5.573809232590963836e-01 5.632781548083810776e+04 1.124793923093019288e+01
1.243709453682000365e+01 5.790450297489192488e-01 4.750998221261830622e+04 1.195570231576427034e+01
1.242956662695715231e+01 6.012680459852828285e-01 4.011544727272738965e+04 1.268406464101252062e+01
1.242551193168241674e+01 6.239938635603637929e-01 3.393283572195217130e+04 1.343362574162486744e+01
1.242424447131272736e+01 6.472378725538304733e-01 2.874530845776198839e+04 1.420500260184305219e+01
1.242563327432335996e+01 6.709576140690092227e-01 2.439797353223814571e+04 1.499883016305713923e+01
1.242902613193026795e+01 6.951567635275157642e-01 2.072885091518067202e+04 1.581576184644322502e+01
1.243436909744779406e+01 7.198186351820596851e-01 1.764462108874262412e+04 1.665647009081223473e+01
1.244159548903762236e+01 7.448977718667919579e-01 1.504762821816968608e+04 1.752164690611268938e+01
1.245000463414695169e+01 7.704200170852688601e-01 1.284963645856999756e+04 1.841200444304305250e+01
1.245964812166499769e+01 7.963484855565481357e-01 1.099034097867162563e+04 1.932827557924242257e+01
1.247016523122432474e+01 8.226752962738304031e-01 9.414137877435281553e+03 2.027121452254218426e+01
1.248153811135100355e+01 8.493605599305072973e-01 8.077049312655877657e+03 2.124159743177505888e+01
1.249330572176092424e+01 8.764263672954548667e-01 6.938518276998531292e+03 2.224022305565272362e+01
1.250566507598801103e+01 9.038023634114227267e-01 5.971311361067900179e+03 2.326791339023765914e+01
1.251800594116702037e+01 9.315406378840708213e-01 5.144107952129818841e+03 2.432551435555066988e+01
1.253040838262461243e+01 9.595902916050049747e-01 4.437483446867438033e+03 2.541389649187068756e+01
1.254284172161989908e+01 9.879080121301825335e-01 3.833714449639946451e+03 2.653395567630037633e+01
1.255488497177421614e+01 1.016536284260724177e+00 3.314991116370389136e+03 2.807910076464324334e+01
1.256676210522735637e+01 1.045422535781798334e+00 2.870776374809666322e+03 2.969488592596078291e+01
1.257841316922487529e+01 1.074537224229030530e+00 2.489468931331944077e+03 3.135769804828944984e+01
1.258954874516966349e+01 1.103896246359953315e+00 2.161313211646564923e+03 3.306890583776351633e+01
1.260014551649068437e+01 1.133474529954300758e+00 1.878267614356957210e+03 3.482991783631444349e+01
1.261010318324519019e+01 1.163230966344317663e+00 1.634153341596390646e+03 3.664218358108026763e+01
1.261944981893041806e+01 1.193130006084626604e+00 1.423874730039714450e+03 3.850719479755935026e+01
1.262797924870686650e+01 1.223172276523389002e+00 1.241951499703353420e+03 4.042648662749025590e+01
1.263567295086424913e+01 1.253324650277766406e+00 1.084546817375490946e+03 4.240163889246908013e+01
1.264234995832436148e+01 1.283578405443008608e+00 9.480420504389670668e+02 4.443427739434368817e+01
1.264800900519438720e+01 1.313910859341264725e+00 8.295345906655340968e+02 4.652607525345578665e+01
1.265261275816595976e+01 1.344270253225136269e+00 7.266922304762601925e+02 4.867875428583191422e+01
1.265598297040159181e+01 1.374666363037914563e+00 6.371974227325854372e+02 5.089408642045741260e+01
1.265815547917458339e+01 1.405065962984786365e+00 5.592370414134833254e+02 5.354007275191391813e+01
1.265901730686675464e+01 1.435375853999212525e+00 4.914153020607690792e+02 5.659906657107497807e+01
1.265858838783078077e+01 1.465544697876939972e+00 4.323478747756004736e+02 5.974709152290816405e+01
1.265677505461549224e+01 1.495580432318084130e+00 3.808635431087931238e+02 6.298673883284699571e+01
1.265350417608024181e+01 1.525451635772893555e+00 3.358768358356496151e+02 6.632067514319355439e+01
1.264885348030301770e+01 1.555140863650630312e+00 2.965224610108939487e+02 6.975164470810503303e+01
1.264265405323958369e+01 1.584622645588818823e+00 2.620492056417288040e+02 7.328247165246409622e+01
1.263495553790047232e+01 1.613874382278747133e+00 2.318285976946295932e+02 7.691606229649350723e+01
1.262563970515430078e+01 1.642907401597919703e+00 2.052582986276744634e+02 8.065540754802769641e+01
1.261475022017642722e+01 1.671669304738624184e+00 1.819068808655263751e+02 8.450358536441089541e+01
1.260221651387477237e+01 1.700143738865351750e+00 1.613545245807771380e+02 8.862569327201218528e+01
1.258801099615729058e+01 1.728253655623781748e+00 1.432727723232267465e+02 9.378914958267979785e+01
1.257215274272240357e+01 1.755897022985970946e+00 1.273895220009762710e+02 9.910288679975610648e+01
1.255458840482424421e+01 1.783083612329486645e+00 1.133999650642421102e+02 1.045712788056701896e+02
1.253532184698189766e+01 1.809792852806428876e+00 1.010587244351678322e+02 1.101988267834376387e+02
1.251430758208740635e+01 1.836017235282562110e+00 9.015883583914812505e+01 1.159901629217072099e+02
1.249153015054839599e+01 1.861743782123718605e+00 8.050947140693129711e+01 1.219500542276419566e+02
1.246695131819191893e+01 1.886957575360903139e+00 7.196031471528861800e+01 1.280834064507733387e+02
1.244060100692371762e+01 1.911675146384732571e+00 6.436984766849285222e+01 1.343952681210576543e+02
1.241247282684589059e+01 1.935794877099738187e+00 5.764031598188000061e+01 1.421158628314454120e+02
1.238263623065760655e+01 1.959255824348605790e+00 5.167472121132497165e+01 1.504148213820263038e+02
1.235102536972250498e+01 1.982005829796015473e+00 4.639099513828897159e+01 1.589553187272035188e+02
1.231763115026403277e+01 2.004061442563799922e+00 4.169305436899996664e+01 1.677443847839165301e+02
1.228250131256909405e+01 2.025381415687997233e+00 3.751485213979962197e+01 1.767892540728093138e+02
1.224554542045662942e+01 2.046072206045184583e+00 3.378185895167496255e+01 1.860973716731626837e+02
1.220678229143353022e+01 2.066032029869866005e+00 3.045017904847650314e+01 1.956763993511414981e+02
1.216628898416078108e+01 2.085210035508903381e+00 2.747722320387133621e+01 2.072520823333746591e+02
1.212409259110589765e+01 2.103380224135878329e+00 2.484220447557339995e+01 2.196061493929551602e+02
1.208000958799686231e+01 2.120511727455265394e+00 2.250092492112653986e+01 2.323197780105007269e+02
1.203397519817673178e+01 2.136640258341428122e+00 2.041016628905432384e+01 2.454034331214320730e+02
1.198591876373019005e+01 2.151738350915162190e+00 1.854148634455919620e+01 2.588678842400969984e+02
1.193588173994704249e+01 2.165812468660348600e+00 1.686747895359735949e+01 2.740352305686743080e+02
1.188407692303067797e+01 2.178381379263699902e+00 1.539596350875070208e+01 2.909545349989294891e+02
1.183000981040982147e+01 2.189413237898099496e+00 1.409043575698309070e+01 3.083662709038794105e+02
1.177342716175654758e+01 2.198828170727626929e+00 1.293396000414341707e+01 3.265323119419559248e+02
1.171413295221468509e+01 2.206756193135247734e+00 1.189733013124074468e+01 3.480315051265165494e+02
1.165231623035219144e+01 2.213359344636239623e+00 1.096402346610365974e+01 3.701564261267949405e+02
1.158803854432109581e+01 2.218716691212096581e+00 1.011828989049110028e+01 3.929252865703635962e+02
1.152132373654285580e+01 2.222875802730516437e+00 9.351130905825350226e+00 4.182603306049874163e+02
1.145243574147808019e+01 2.226025435158764054e+00 8.649022570782966213e+00 4.463770844882851065e+02
1.138157945378994462e+01 2.228220167467048540e+00 8.007326953389132029e+00 4.753121683824552406e+02
1.130881926436040352e+01 2.229542487409205798e+00 7.417220696157690973e+00 5.050893995463995907e+02
1.123445713454721151e+01 2.229997732810196087e+00 6.876517865806859753e+00 5.390763927362877439e+02
