# Radius[km]  Mass[Solar Mass] Lambda Central_pressure[MeV fm-3]
1.922059571266517963e+01 1.532113423024586973e-01 1.658227966028312407e+07 2.372155037231578945e+00
1.813723919861255496e+01 1.614575841002103274e-01 1.254863321819907799e+07 2.613428452474229502e+00
1.722068559479158623e+01 1.704000642044656566e-01 9.520069843296347186e+06 2.863988458037749929e+00
1.644630519064781993e+01 1.800160667713097407e-01 7.254910544733700342e+06 3.122041595896342780e+00
1.579242656904022724e+01 1.902727407054883579e-01 5.555325711652084254e+06 3.387811952218370504e+00
1.523916074645992502e+01 2.011486606542868538e-01 4.277293907520809211e+06 3.661530314590090818e+00
1.477004106250111093e+01 2.126209846330047448e-01 3.312377562824932393e+06 3.943434372425176360e+00
1.437125845531853585e+01 2.246647970989163190e-01 2.580138589852749370e+06 4.233768923367592585e+00
1.403144398016672056e+01 2.372653615415871720e-01 2.021822286306495545e+06 4.532786085867067882e+00
1.374110415036934540e+01 2.504052440198568097e-01 1.593224317574786488e+06 4.840745518111733148e+00
1.349258267976104442e+01 2.640685100976554733e-01 1.262654106031786418e+06 5.157914643508086705e+00
1.327945562895632925e+01 2.782397974994902379e-01 1.005995306340160314e+06 5.484568882904028442e+00
1.309634339430596128e+01 2.929120208899927968e-01 8.055811568035108503e+05 5.820991893756672475e+00
1.293885018566888867e+01 3.080644621275743789e-01 6.482750354378683260e+05 6.167475816452594906e+00
1.280325595397195038e+01 3.236983079276271602e-01 5.240010398208007682e+05 6.524321527994416670e+00
1.268651474678664570e+01 3.397980471252461387e-01 4.254958869011528441e+05 6.891838903274025263e+00
1.258593942536959709e+01 3.563563532922167099e-01 3.468872228282158612e+05 7.270347084159320517e+00
1.249941623857717410e+01 3.733598474985681537e-01 2.839053304997010855e+05 7.660174756628125081e+00
1.242501738095266539e+01 3.908046263266491960e-01 2.332077241220895085e+05 8.061660436189963974e+00
1.236102317858544275e+01 4.086848753541565404e-01 1.922077906118227693e+05 8.475152761843492755e+00
1.230618623042913207e+01 4.269895394265700861e-01 1.589230178823982133e+05 8.901010798824941617e+00
1.225923269110299429e+01 4.457126902864638751e-01 1.318153950436967425e+05 9.339604350410345646e+00
1.221916620408893372e+01 4.648521586507848302e-01 1.096290452608475898e+05 9.836682817491453790e+00
1.218501421258979889e+01 4.845764480598552804e-01 9.129019016414861835e+04 1.050976677273229321e+01
1.215664243434261849e+01 5.049367164933291630e-01 7.609589937790298427e+04 1.120297966719057570e+01
1.213363748920687968e+01 5.259221612171015581e-01 6.351698057178451563e+04 1.191692346766535238e+01
1.211557642510566524e+01 5.475036349285098414e-01 5.309547158312900865e+04 1.265221814309787085e+01
1.210200327240426610e+01 5.696616098672847572e-01 4.445952807175879570e+04 1.340950220293550998e+01
1.209248163576606672e+01 5.923899024715213457e-01 3.728919734914507717e+04 1.418943325159542823e+01
1.208662803116543571e+01 6.156551159665304418e-01 3.133544268396929692e+04 1.499268855951016022e+01
1.208402593349417131e+01 6.394500695198732654e-01 2.638236771090232651e+04 1.581996565125020560e+01
1.208418364640064446e+01 6.637508440954730249e-01 2.225042421067793839e+04 1.667198291123521159e+01
1.208686834643352626e+01 6.885463063248249416e-01 1.880088049773418243e+04 1.754948020755877636e+01
1.209179288418430076e+01 7.138211198661712498e-01 1.591611947690203851e+04 1.845321953446952534e+01
1.209848085897956338e+01 7.395551386703347330e-01 1.349583727957954034e+04 1.938398567406561313e+01
1.210675405789672965e+01 7.657280335695590967e-01 1.146558679841125922e+04 2.034258687777770902e+01
1.211629193002153038e+01 7.923277282245221320e-01 9.756549946230046771e+03 2.132985556823205542e+01
1.212694140208434668e+01 8.193339346794636935e-01 8.316785071740589046e+03 2.234664906210312907e+01
1.213827099556281475e+01 8.467342835769126053e-01 7.099955966278444976e+03 2.339385031458361652e+01
1.215024574923084622e+01 8.745100054790241328e-01 6.070641979651549264e+03 2.447236868611809157e+01
1.216263356391125683e+01 9.026434271177186108e-01 5.198886392458121918e+03 2.560222590520693942e+01
1.217527679788368467e+01 9.311440934393939717e-01 4.457405718956757482e+03 2.714835892314752641e+01
1.218816720375047424e+01 9.600106237267929110e-01 3.827650516944969240e+03 2.874072988406369333e+01
1.220122312808289777e+01 9.892222874659373222e-01 3.290377025592719747e+03 3.038072155861347312e+01
1.221427106182681044e+01 1.018746440386308461e+00 2.832687094339422401e+03 3.206975806995827583e+01
1.222721548278838277e+01 1.048569714507643358e+00 2.441941338582269054e+03 3.380930613043178568e+01
1.223994546794874871e+01 1.078651395378482647e+00 2.107949805683103932e+03 3.560087631519226647e+01
1.225229411729575091e+01 1.108985688182786200e+00 1.821972008845027176e+03 3.744602437396392247e+01
1.226415081854700517e+01 1.139528852467585729e+00 1.576956756155287167e+03 3.934635258200670904e+01
1.227543648965671963e+01 1.170272702021976086e+00 1.366430542833422123e+03 4.130351113148766018e+01
1.228604017969075990e+01 1.201175364117401889e+00 1.185576147385058448e+03 4.331919956446183306e+01
1.229588705895845102e+01 1.232230482527292947e+00 1.029958839285315662e+03 4.539516824870737111e+01
1.230479587298192889e+01 1.263403730568808836e+00 8.956931348681495137e+02 4.753321989769621325e+01
1.231276478022250132e+01 1.294665079674881758e+00 7.798547727401996781e+02 4.973521113602030397e+01
1.231963071578153190e+01 1.326003364952070163e+00 6.797554057367013911e+02 5.230576219673154981e+01
1.232538712482047671e+01 1.357327613399880173e+00 5.932687751771455851e+02 5.533867518331400959e+01
1.233000695185855911e+01 1.388601299407668632e+00 5.184620019765441157e+02 5.846228907085151150e+01
1.233336177383415055e+01 1.419809377262716943e+00 4.536720647455707081e+02 6.167931631877510057e+01
1.233546880298908910e+01 1.450931444541831761e+00 3.974695591364575193e+02 6.499255050408014256e+01
1.233624771982528223e+01 1.481921088331014769e+00 3.486618540682649723e+02 6.840486874719087496e+01
1.233561271440959395e+01 1.512780972186584139e+00 3.061903745489739208e+02 7.191923421037174080e+01
1.233355879057967819e+01 1.543477016145387237e+00 2.691898948925127684e+02 7.553869867085519729e+01
1.233002047322031380e+01 1.573984288195495962e+00 2.369027308316164522e+02 7.926640517092002369e+01
1.232492600255350368e+01 1.604278822010263283e+00 2.087051627932800386e+02 8.310559074722195305e+01
1.231827368098959674e+01 1.634342027039952905e+00 1.840438469244459725e+02 8.705958924174630909e+01
1.230998908952562054e+01 1.664106566201422055e+00 1.624658446724228043e+02 9.210297039483474180e+01
1.230005933354082615e+01 1.693463182597634731e+00 1.436175431183961848e+02 9.740672519264336415e+01
1.228848056112350129e+01 1.722387909776486481e+00 1.271274844804929387e+02 1.028690916422646495e+02
1.227518168507973328e+01 1.750868014985262899e+00 1.126767021172416321e+02 1.084948131108128990e+02
1.226017715596106505e+01 1.778908405755596167e+00 9.997029193996831964e+01 1.142887748183580499e+02
1.224340681480215487e+01 1.806469130554823943e+00 8.879968323897897164e+01 1.202560080801146540e+02
1.222486558475249474e+01 1.833552974624883536e+00 7.895387571359236745e+01 1.264016946754962305e+02
1.220449975448564572e+01 1.860143865113415895e+00 7.027109737548575197e+01 1.327311713478283650e+02
1.218234494504116050e+01 1.886214603817328639e+00 6.259502594241119056e+01 1.398852052499071590e+02
1.215838252048111201e+01 1.911609735259755194e+00 5.584223038783936488e+01 1.482166788351024991e+02
1.213267274394813100e+01 1.936336665597081730e+00 4.987949726608773204e+01 1.567973096377331501e+02
1.210515133096699181e+01 1.960376788133233239e+00 4.460922534467888312e+01 1.656345488389574712e+02
1.207579993588271350e+01 1.983701065790214546e+00 3.994619809160389678e+01 1.747360704515309919e+02
1.204458061639257593e+01 2.006326833500774676e+00 3.580766115306082753e+01 1.841097779837052713e+02
1.201154379116282911e+01 2.028254308767737157e+00 3.212929373993009818e+01 1.937638113024148936e+02
1.197663687566750390e+01 2.049452799068266717e+00 2.885844028218913948e+01 2.044120822912570077e+02
1.193995552692566875e+01 2.069520860547746199e+00 2.598137696739016889e+01 2.168341374318506496e+02
1.190112511583670596e+01 2.088274527171043005e+00 2.345351729484783121e+01 2.296276808406371117e+02
1.185996237279626797e+01 2.105741040465309410e+00 2.122017875881329374e+01 2.428038220749191680e+02
1.181632226928571150e+01 2.121937244641772580e+00 1.923767201181806641e+01 2.563740029293114162e+02
1.177028284180386741e+01 2.136772051587455312e+00 1.748083328706418982e+01 2.720053615753976146e+02
1.172175821077872016e+01 2.149708579219213433e+00 1.594901377481608939e+01 2.889378991372429368e+02
1.167021163525267369e+01 2.160677868870954921e+00 1.460578008718156795e+01 3.063768133802224156e+02
1.161544893805774414e+01 2.169684218079115379e+00 1.342339498961262301e+01 3.262598028028522208e+02
1.155749740579881824e+01 2.176604463104951037e+00 1.238553752931615826e+01 3.475349304550301781e+02
1.149604179426465755e+01 2.181468797666703541e+00 1.146840700403781277e+01 3.701656756735847011e+02
1.143123720339145777e+01 2.184253291597626045e+00 1.065782782397289630e+01 3.957945054624757404e+02
1.136303122866564586e+01 2.184982460199941912e+00 9.940165120677944444e+00 4.226250012735088717e+02
