# Radius[km]  Mass[Solar Mass] Lambda Central_pressure[MeV fm-3]
1.951468020996825103e+01 1.515988972270282675e-01 1.760986636418574676e+07 2.379011418786267207e+00
1.847874505451213167e+01 1.586777046032714078e-01 1.366137867803170159e+07 2.580301026951950405e+00
1.759758101177365219e+01 1.661330053575977850e-01 1.066386090747531503e+07 2.793498857284498538e+00
1.684188982154194747e+01 1.739791471735907258e-01 8.365096968523802236e+06 3.018693176727412553e+00
1.618975752067892770e+01 1.822114081987713796e-01 6.592276115596980788e+06 3.256436851976898250e+00
1.562383121235858852e+01 1.908410473314886835e-01 5.216061527443572879e+06 3.507405620529404633e+00
1.513008491105203568e+01 1.998725185608583310e-01 4.143133005850164220e+06 3.771831870323749225e+00
1.469748072258593474e+01 2.093129562638761654e-01 3.302580972932517994e+06 4.050239516776952264e+00
1.431723269548188071e+01 2.191693374694855256e-01 2.641559750745086465e+06 4.343171095069529031e+00
1.398148660353771078e+01 2.294504857393115382e-01 2.119016854879033752e+06 4.654404824032453369e+00
1.368249792590675540e+01 2.402746130343206832e-01 1.701851725314042531e+06 5.027200705554192517e+00
1.341546081584807304e+01 2.517218087519869640e-01 1.367420308276948985e+06 5.410570934251527575e+00
1.317845319355430611e+01 2.637681864742587035e-01 1.100254175385697745e+06 5.804815451255069370e+00
1.296885861667804285e+01 2.763976933775647571e-01 8.869694096578786848e+05 6.210242705519159578e+00
1.278410326649512996e+01 2.895950561809318424e-01 7.169671907866719412e+05 6.627169895146115763e+00
1.262162207604737674e+01 3.033448336655052979e-01 5.811202811435720650e+05 7.055923215555585770e+00
1.247903845862191297e+01 3.176275188698020613e-01 4.724092012079421547e+05 7.496838114693327171e+00
1.235423746605188988e+01 3.324295930024963597e-01 3.853407336861325894e+05 7.950259555478858431e+00
1.224520126175288759e+01 3.477483176550102972e-01 3.152543331428216770e+05 8.416542285697518722e+00
1.215009915748599489e+01 3.635562071167450782e-01 2.587671868824167468e+05 8.896051115547942700e+00
1.206748577388576038e+01 3.798504829117919090e-01 2.130723834494626208e+05 9.389161203062222683e+00
1.199580654099569266e+01 3.966123470538109319e-01 1.760084996243169880e+05 9.896258347622001850e+00
1.193389365334487806e+01 4.138354199927611887e-01 1.458258859532223141e+05 1.041773929180005531e+01
1.188061386900301208e+01 4.315177258488080425e-01 1.211761549685253995e+05 1.095401203176375127e+01
1.183489221815988124e+01 4.496329711404561946e-01 1.009842606554231315e+05 1.150549613648297687e+01
1.179605906494743905e+01 4.681834859516206260e-01 8.438975345818305505e+04 1.207262307599244266e+01
1.176311819618738141e+01 4.871553057329606196e-01 7.070861725247604772e+04 1.265583655896513449e+01
1.173530234314936038e+01 5.065413836826593297e-01 5.938607658702502522e+04 1.325559287986100188e+01
1.171213055389251956e+01 5.263237113316059368e-01 5.000357631020261033e+04 1.387236127592257517e+01
1.169303577305833919e+01 5.465107045121623264e-01 4.219349767232880549e+04 1.450662429429669942e+01
1.167760707669741826e+01 5.671681543931091918e-01 3.566788081311011774e+04 1.538414983001531944e+01
1.166576296009646541e+01 5.883979753020294190e-01 3.017334873613136369e+04 1.630058458957163481e+01
1.165700372711607358e+01 6.101846913505130088e-01 2.555132073295629743e+04 1.724301400140730678e+01
1.165140310005639712e+01 6.325051980697652398e-01 2.166931971955230983e+04 1.821217540327616291e+01
1.164853068730731778e+01 6.553412535342797440e-01 1.840099370639249537e+04 1.920882704750156478e+01
1.164833106416666553e+01 6.786735337108987798e-01 1.565168946475089433e+04 2.023374869421773425e+01
1.165030868599676417e+01 7.024839219461864737e-01 1.333257333427240701e+04 2.128774222143838557e+01
1.165436541929959624e+01 7.267467435922138064e-01 1.137577412266484498e+04 2.237163225242987963e+01
1.166010551927649352e+01 7.514662275604631070e-01 9.719836912231912720e+03 2.348626680087981100e+01
1.166758277850973791e+01 7.765904830540839576e-01 8.320356092757501756e+03 2.463251793436579362e+01
1.167613995275656791e+01 8.021454148557726205e-01 7.131062791855207252e+03 2.581128245664359966e+01
1.168588514110145482e+01 8.280738409556022139e-01 6.122370796644979237e+03 2.702348260928826562e+01
1.169661666457221472e+01 8.543752539929544421e-01 5.264422360813789965e+03 2.827006679323729799e+01
1.170791366865882566e+01 8.810429593225771461e-01 4.532689869347454078e+03 2.955201031080041574e+01
1.171997553498937350e+01 9.080193736632214963e-01 3.909219386904404928e+03 3.087031612871644271e+01
1.173222796478135344e+01 9.353432091368333312e-01 3.375363632246765519e+03 3.222601566285421626e+01
1.174472832431912828e+01 9.629602416525550046e-01 2.918596480557923769e+03 3.362016958517154563e+01
1.175740920927103517e+01 9.908613727941703031e-01 2.527026043691999348e+03 3.533409543397998220e+01
1.177020141178264545e+01 1.019065615919333867e+00 2.190811821371879887e+03 3.726417223581739080e+01
1.178292810922167533e+01 1.047549475286914333e+00 1.901127612086647787e+03 3.924899562470100278e+01
1.179567218250149985e+01 1.076282155632619641e+00 1.652134808184160875e+03 4.129011848639704141e+01
1.180823035944750821e+01 1.105249773129851398e+00 1.437558471039078313e+03 4.338913775424303765e+01
1.182046325683773880e+01 1.134428938708620160e+00 1.252201500040591327e+03 4.554769565855648494e+01
1.183241523973277154e+01 1.163781371821365429e+00 1.092229436717583894e+03 4.776748101148247372e+01
1.184388531394989030e+01 1.193304263455339020e+00 9.537677590038354083e+02 5.005023052828641283e+01
1.185480081712717038e+01 1.222954900973444170e+00 8.338283662108440240e+02 5.239773018612483213e+01
1.186516120727465129e+01 1.252722289729153449e+00 7.299189871858618517e+02 5.481181662135809063e+01
1.187477039352847896e+01 1.282578359496288511e+00 6.396072396147471864e+02 5.729437856649732197e+01
1.188368692027648343e+01 1.312497421509403628e+00 5.611436958983078966e+02 5.984735832791095334e+01
1.189161591612222679e+01 1.342475341443634118e+00 4.927434218834422381e+02 6.247275330544568561e+01
1.189867477890872216e+01 1.372475584164356999e+00 4.331532067535775923e+02 6.528619573079294014e+01
1.190475036124725072e+01 1.402428413252420736e+00 3.812100552618716165e+02 6.882267992755099328e+01
1.190983983904677146e+01 1.432299944831541882e+00 3.359106980259252850e+02 7.245947642262335364e+01
1.191383058740442102e+01 1.462073420105326260e+00 2.963527356807730939e+02 7.619943057219798277e+01
1.191677751591836198e+01 1.491715972975589111e+00 2.617788132586126721e+02 8.004546844093017910e+01
1.191854967526996667e+01 1.521220138775142061e+00 2.314748018411269754e+02 8.400059909123619661e+01
1.191914017682471361e+01 1.550550291217652754e+00 2.049203397217825398e+02 8.806791693752319361e+01
1.191848829501774532e+01 1.579684435960402755e+00 1.816049436458780804e+02 9.225060416719661305e+01
1.191657210207336881e+01 1.608617607640283831e+00 1.610935739422627364e+02 9.655193323033924457e+01
1.191333405474586904e+01 1.637326655199956349e+00 1.430349377826451303e+02 1.009752694000102906e+02
1.190874261869023698e+01 1.665787832312098704e+00 1.271271024408784314e+02 1.055240734051669023e+02
1.190276944515037982e+01 1.693960122262723411e+00 1.130892115026256732e+02 1.107362005502637743e+02
1.189540845361896615e+01 1.721750141552094826e+00 1.007294269810548286e+02 1.167477268138454178e+02
1.188660855946346828e+01 1.749114920807000484e+00 8.983208310745196457e+01 1.229297698908288083e+02
1.187633252185116639e+01 1.776059043097765633e+00 8.020400687035690623e+01 1.292871664869650203e+02
1.186464010105427747e+01 1.802563852521209098e+00 7.168902573483470064e+01 1.358248905010601106e+02
1.185142980819499670e+01 1.828606612381939334e+00 6.414851647982467853e+01 1.425480569164529641e+02
1.183671545126554392e+01 1.854173671480187302e+00 5.746117347471729175e+01 1.494619258028750437e+02
1.182043752927373426e+01 1.879256123807903744e+00 5.151721904556616494e+01 1.565719064318226401e+02
1.180260794698416760e+01 1.903867003747831133e+00 4.622653211015734342e+01 1.638835615086622681e+02
1.178324915566532205e+01 1.927944781780671191e+00 4.151779272927014119e+01 1.726329554043716143e+02
1.176234240912759788e+01 1.951356496597786983e+00 3.733990931732460439e+01 1.821605272404844129e+02
1.173992468680463297e+01 1.974151614179159075e+00 3.362127837731866009e+01 1.919583484471756663e+02
1.171594623325687756e+01 1.996261613761341591e+00 3.031215838691932873e+01 2.020340846420397440e+02
1.169038985805517683e+01 2.017715796692333363e+00 2.735649213229211085e+01 2.123956188777497687e+02
1.166325974213458849e+01 2.038499175466282676e+00 2.471553303893952602e+01 2.230510578095978076e+02
1.163453005942776919e+01 2.058643517484513019e+00 2.234827710585653548e+01 2.340087380379802084e+02
1.160422836419201609e+01 2.078110091593559972e+00 2.022693295847034278e+01 2.461472454344640823e+02
1.157240833719191286e+01 2.096790766922919769e+00 1.833044000537865159e+01 2.602718319563333580e+02
1.153911673706213747e+01 2.114683611569237343e+00 1.663303118767367650e+01 2.747970620716465646e+02
1.150429980186859957e+01 2.131778789002280128e+00 1.511170386765747686e+01 2.897343000273302778e+02
1.146795740545172393e+01 2.148101833565831065e+00 1.374373645743571082e+01 3.050952324169308554e+02
1.143007994337322586e+01 2.163621450536547641e+00 1.251374593226889687e+01 3.208918773239703910e+02
1.139063576910680986e+01 2.178389073618220539e+00 1.140333881626722956e+01 3.372615857576384428e+02
1.134985797510748640e+01 2.192171925533994425e+00 1.041106117506493511e+01 3.572091941734061606e+02
1.130744327551854411e+01 2.204615649178416792e+00 9.532137082710285370e+00 3.777226160736207703e+02
1.126312938197937363e+01 2.215726057519245451e+00 8.748779516719681126e+00 3.988179007456210456e+02
1.121674083593137361e+01 2.225477124492762915e+00 8.049196292447323486e+00 4.208949762255842870e+02
1.116878271718112892e+01 2.233249913463903447e+00 7.443366786482152442e+00 4.465343239284254082e+02
1.111844960322861198e+01 2.238095630110618739e+00 6.936849842172650327e+00 4.742893432730437553e+02
1.106541898743442331e+01 2.239132546383691746e+00 6.535415859599955191e+00 5.059122839874266901e+02
