# Radius[km]  Mass[Solar Mass] Lambda Central_pressure[MeV fm-3]
1.885410763020686886e+01 1.667930014413670226e-01 1.375519717778435349e+07 2.191427321749570556e+00
1.796278946989045266e+01 1.757806925598367487e-01 1.057213293495512381e+07 2.374912210982253136e+00
1.721350328437295119e+01 1.851753901721472362e-01 8.187176629087128676e+06 2.569205417033652239e+00
1.657816028381410689e+01 1.949742608181567194e-01 6.381537204006277956e+06 2.775126518922905294e+00
1.603546428788764899e+01 2.051680933141144525e-01 5.003884890867606737e+06 2.993011708034034601e+00
1.556861280335353648e+01 2.157573066826922736e-01 3.945635527858465910e+06 3.223443685628995858e+00
1.516398004574874925e+01 2.267444205872707341e-01 3.126183584918485023e+06 3.467048220480754228e+00
1.481169635473836799e+01 2.381228085594504218e-01 2.488547329011666123e+06 3.724482858735110202e+00
1.450344434745455580e+01 2.498980888068856321e-01 1.989644457444421947e+06 3.996438003817214035e+00
1.423253688205323009e+01 2.620619367850481884e-01 1.597267933171829907e+06 4.283638038496840217e+00
1.399387862789351544e+01 2.746136741538973136e-01 1.287286416109865531e+06 4.586842491218499518e+00
1.378244140867099077e+01 2.875592308162405186e-01 1.041340604999307194e+06 4.906847248847044263e+00
1.359479983247818957e+01 3.008898727807825524e-01 8.452971876093894243e+05 5.245131835314857938e+00
1.342785690848874935e+01 3.146156390984662932e-01 6.884640382625464117e+05 5.602468775165755588e+00
1.327888767233363509e+01 3.287250326944097245e-01 5.625004406603751704e+05 5.979377858279905311e+00
1.314562658748384294e+01 3.432235968479140920e-01 4.609389635331944446e+05 6.376823954248966864e+00
1.302609500972728185e+01 3.581105222613140127e-01 3.787703775026812800e+05 6.795815384546305182e+00
1.291884757010285156e+01 3.733803679812918719e-01 3.121603591606287519e+05 7.239021116076669315e+00
1.282229023305703741e+01 3.890352433336964344e-01 2.579088185780157219e+05 7.706288477675113491e+00
1.273530292853693879e+01 4.050694578994722961e-01 2.136359542173353839e+05 8.198612327623484575e+00
1.265678864038232732e+01 4.214912544729397803e-01 1.773849472874606727e+05 8.718396556562643340e+00
1.258563124205256045e+01 4.382876386309308425e-01 1.476034740319790435e+05 9.267078540819342791e+00
1.252129621517426195e+01 4.554605640709723513e-01 1.231249296840728202e+05 9.844853603786829055e+00
1.246292330822743111e+01 4.729991324806986919e-01 1.029178486896554095e+05 1.045539123067640652e+01
1.240978267846191940e+01 4.909151242598850384e-01 8.620462464018519677e+04 1.109883604414715919e+01
1.236139363799729551e+01 5.091896368411261697e-01 7.235778185427444987e+04 1.177748585653582758e+01
1.231716898119987746e+01 5.278276168407740609e-01 6.083935456277868798e+04 1.249373337041461163e+01
1.227667169491707888e+01 5.468260780025611112e-01 5.124893901700241258e+04 1.324874486192893208e+01
1.223957351292333406e+01 5.661683453610774075e-01 4.324946938354438316e+04 1.404562645381005126e+01
1.220536376705042336e+01 5.858570529801782056e-01 3.656605367357032083e+04 1.488610853404902912e+01
1.217377911986644001e+01 6.058794448729898363e-01 3.096650370661962370e+04 1.577221016379081142e+01
1.214450225304506503e+01 6.262347233866779606e-01 2.626637482448913215e+04 1.670819908254024355e+01
1.211718828043426655e+01 6.470720631813029478e-01 2.228978083704692472e+04 1.778541019264602596e+01
1.209220718846034437e+01 6.688022424256127030e-01 1.887787491473812770e+04 1.893657281782416391e+01
1.207008891611957857e+01 6.914213740351276005e-01 1.597048390903623840e+04 2.012219938155257637e+01
1.205093461929841148e+01 7.149079978925086953e-01 1.349972090908130667e+04 2.134332167815327352e+01
1.203487367358452431e+01 7.392324096581769366e-01 1.140872091666656524e+04 2.260100239219379503e+01
1.202177885467743756e+01 7.643463447186961135e-01 9.644891129810937855e+03 2.389633602329096007e+01
1.201159721288757254e+01 7.902212694081111044e-01 8.157869388709334089e+03 2.523044983860172863e+01
1.200413727459939217e+01 8.168220698639633293e-01 6.906384417787761777e+03 2.660450485383011454e+01
1.199919510068263939e+01 8.441141429013246933e-01 5.852937441862743071e+03 2.801969684360383539e+01
1.199657185774056067e+01 8.720752384342691510e-01 4.965128362453348927e+03 2.947725738210005275e+01
1.199604138074195170e+01 9.006524411158061127e-01 4.218200043698843729e+03 3.097845491482569003e+01
1.199740991270022050e+01 9.298176484856910395e-01 3.588642988147903907e+03 3.252459586248512124e+01
1.200041886708711658e+01 9.595472733183801894e-01 3.057176307169839674e+03 3.411702575789589531e+01
1.200478899369369046e+01 9.898037278235773950e-01 2.608229819162929289e+03 3.575713041694185534e+01
1.201047419660425852e+01 1.020552300375469734e+00 2.228704080439144491e+03 3.744633714458269935e+01
1.201710062346966090e+01 1.051757840374279773e+00 1.907058661487648578e+03 3.918611597696948223e+01
1.202458695442703274e+01 1.083392785802653302e+00 1.634333448651093931e+03 4.097798096074699714e+01
1.203267836302363492e+01 1.115427577025684291e+00 1.402588717765227557e+03 4.282349147065659167e+01
1.204126273648965473e+01 1.147836556057414192e+00 1.205397527810677957e+03 4.521540090539959778e+01
1.205031415277547246e+01 1.180619544958492639e+00 1.037299911080681568e+03 4.778290731352490184e+01
1.205969423133958074e+01 1.213724756084257894e+00 8.939814729605806178e+02 5.042728069173909233e+01
1.206930068125724453e+01 1.247123450814031420e+00 7.715820169015343026e+02 5.315082231223060916e+01
1.207901922705444342e+01 1.280781700583900395e+00 6.668049627827251697e+02 5.595590234353804249e+01
1.208872346698732692e+01 1.314655655845791582e+00 5.771262474616597729e+02 5.884496191319487934e+01
1.209826722907267893e+01 1.348706282594342554e+00 5.002197194780276277e+02 6.182051523212651034e+01
1.210753877127701195e+01 1.382901623306869832e+00 4.341606199361818312e+02 6.488515178264829331e+01
1.211642272702237655e+01 1.417216482088722307e+00 3.773158117127809987e+02 6.804153857196867250e+01
1.212478612869526273e+01 1.451594764899453605e+00 3.283910370085403656e+02 7.129242245315832349e+01
1.213257772270983814e+01 1.486015657130135059e+00 2.861830138764663047e+02 7.464063251560584433e+01
1.213966532309933832e+01 1.520444585867589238e+00 2.497033253068908891e+02 7.808908254703919738e+01
1.214590525365586871e+01 1.554848141383096793e+00 2.181583837774651045e+02 8.164077356925666606e+01
1.215127788310704382e+01 1.589186832975919339e+00 1.908049416974649546e+02 8.529879644977280861e+01
1.215558358936888261e+01 1.623288710087093190e+00 1.671794579140234021e+02 8.986912187635614657e+01
1.215838595270884070e+01 1.656768261128435560e+00 1.468690179090183676e+02 9.481690016365674012e+01
1.215947274938270795e+01 1.689597980927568521e+00 1.293377147997894383e+02 9.991280689356328537e+01
1.215869525114377758e+01 1.721758238602546065e+00 1.141630955849299767e+02 1.051612767909633703e+02
1.215599418641775920e+01 1.753271286139531204e+00 1.009625881173742243e+02 1.105668773492019739e+02
1.215124982771241235e+01 1.784099381685295249e+00 8.945785714876403460e+01 1.161343128049534812e+02
1.214447031248567654e+01 1.814269062018665446e+00 7.939254838423383376e+01 1.218684282320946721e+02
1.213544030996160217e+01 1.843744714821768493e+00 7.056360157740876105e+01 1.277742137581417552e+02
1.212432345917235743e+01 1.872514949792834171e+00 6.281090270843093037e+01 1.344249928312683835e+02
1.211076020539485221e+01 1.900149972306574009e+00 5.606043396709384297e+01 1.421243059153037507e+02
1.209456457099755866e+01 1.926588524897182353e+00 5.016609704188560670e+01 1.500541239229735879e+02
1.207565507280915185e+01 1.951847635630884037e+00 4.499803555594808557e+01 1.582213477971592681e+02
1.205381035068903373e+01 1.975922399583300626e+00 4.043864065475450076e+01 1.666330850837591981e+02
1.202917362094117237e+01 1.998890219078315100e+00 3.640876264133682838e+01 1.752966561170475188e+02
1.200164923929632188e+01 2.020610750919189069e+00 3.284505947431277662e+01 1.854957918693892509e+02
1.197108215899024763e+01 2.040804905880475584e+00 2.971638238469062188e+01 1.964781700163486846e+02
1.193730025698239139e+01 2.059441066076202365e+00 2.695655627776133301e+01 2.077893427204922432e+02
1.190031457032393369e+01 2.076644415995608117e+00 2.450409064855070440e+01 2.194391535566257687e+02
1.185997318699647352e+01 2.092336477067345157e+00 2.232469088978677618e+01 2.326186862091291232e+02
1.181640975972145391e+01 2.106333681418288695e+00 2.039746729106772349e+01 2.470778120107442533e+02
1.176932701388006741e+01 2.118620839278681611e+00 1.868358765646021524e+01 2.619698205451878721e+02
1.171893543327989384e+01 2.129347959891745745e+00 1.715163414005155929e+01 2.779707456034687993e+02
1.166514782458319921e+01 2.138409232692520590e+00 1.578283783445391819e+01 2.961910793041212173e+02
1.160800935878097917e+01 2.145859338606321831e+00 1.455549692030062126e+01 3.149569001907626102e+02
1.154750386179659394e+01 2.151788241457101680e+00 1.344749688152911560e+01 3.352081768494530252e+02
1.148386815829561947e+01 2.156239569293227909e+00 1.244742679651386652e+01 3.579724458149460133e+02
1.141716640962289553e+01 2.159306668030907428e+00 1.153942638580653224e+01 3.814182400051197419e+02
1.134751808774602999e+01 2.161065970770602807e+00 1.071249872226127842e+01 4.073112269770383591e+02
1.127517167190910463e+01 2.161560199096489221e+00 9.957999141493921513e+00 4.355854916001651986e+02
