# Radius[km]  Mass[Solar Mass] Lambda Central_pressure[MeV fm-3]
1.886508299007502387e+01 1.672311522910167880e-01 1.372224807977079041e+07 2.184627551468647511e+00
1.801142156730841037e+01 1.758251833390156171e-01 1.066892023849259131e+07 2.360434512771714566e+00
1.728829103157152502e+01 1.847954191392825185e-01 8.350933982041543350e+06 2.546113642947261280e+00
1.667001581743316052e+01 1.941499979356066108e-01 6.573271796467972919e+06 2.742198301942541772e+00
1.613751239954761019e+01 2.038909299761605676e-01 5.201145143877754919e+06 2.949137589246543900e+00
1.567619174337443866e+01 2.140193990235884636e-01 4.134198338208343834e+06 3.167281326535321462e+00
1.527425422378812314e+01 2.245408207872210404e-01 3.300107155419086572e+06 3.397218258353949416e+00
1.492250173931192059e+01 2.354582624454557016e-01 2.645049484950204380e+06 3.639497138970878343e+00
1.461345574060520569e+01 2.467758316917083028e-01 2.127772827604873572e+06 3.894491776298351304e+00
1.434080877527164688e+01 2.585035608586259137e-01 1.717645978765588021e+06 4.162893143749425207e+00
1.409904740396749290e+01 2.706776842328866284e-01 1.390198014184258413e+06 4.473682495684570881e+00
1.388323657729192107e+01 2.834363572462042513e-01 1.126825303486508084e+06 4.817794342579721167e+00
1.369114383199863916e+01 2.967847249289101152e-01 9.138336399096139940e+05 5.171791939979839547e+00
1.352087474239313103e+01 3.107075920808266001e-01 7.427281187578046229e+05 5.535959288752467344e+00
1.337046452717457967e+01 3.251824781274271770e-01 6.051105243260796415e+05 5.910588548629026384e+00
1.323792593035286913e+01 3.401963496200666182e-01 4.941985042090680799e+05 6.295980272595144811e+00
1.312143084983127928e+01 3.557407106049128576e-01 4.047874977537540835e+05 6.692443648014668511e+00
1.301915388744089697e+01 3.717946691355583644e-01 3.324346879666642635e+05 7.100296744680712813e+00
1.292984264477651024e+01 3.883539578201370412e-01 2.738080979056988144e+05 7.519866769992770372e+00
1.285178798142819723e+01 4.053955089781666743e-01 2.261751348063457117e+05 7.951490331464734496e+00
1.278392533318958613e+01 4.229184310246341116e-01 1.873563447038336599e+05 8.395513706774206497e+00
1.272497050855176681e+01 4.409012030354323430e-01 1.556403278256843623e+05 8.852293121569942969e+00
1.267399970716389213e+01 4.593416763602407027e-01 1.296384504354392993e+05 9.322195035260222085e+00
1.263010503921878858e+01 4.782274610611099153e-01 1.082702564201871282e+05 9.805596435011395329e+00
1.259245120306797006e+01 4.975477108039196295e-01 9.065851792853994993e+04 1.030288513819258434e+01
1.256028315304194187e+01 5.172936321715710939e-01 7.610336782688420499e+04 1.081446010350904352e+01
1.253300478356274716e+01 5.374570936412264022e-01 6.401966591901440552e+04 1.134073175107383591e+01
1.250997689965002024e+01 5.580224331906430413e-01 5.398874080900480476e+04 1.188212229167474376e+01
1.249081972659495321e+01 5.789913832675410710e-01 4.563129160258597403e+04 1.243906606550033800e+01
1.247478469649037613e+01 6.003391410385064964e-01 3.864618348978613358e+04 1.301200989059709379e+01
1.246146203881155579e+01 6.220794021706020915e-01 3.278879630546390399e+04 1.360141342133716336e+01
1.245090912194808119e+01 6.442423737858363753e-01 2.786629308801460502e+04 1.441987857782893023e+01
1.244256770368692777e+01 6.669394495446143711e-01 2.370125212412646579e+04 1.530280321757814654e+01
1.243659771841717721e+01 6.901511653952639991e-01 2.018039173059676250e+04 1.621109278673043974e+01
1.243295091372009509e+01 7.138431547041633740e-01 1.720590717005976330e+04 1.714547597674446067e+01
1.243097146305378686e+01 7.380197850954307581e-01 1.468652224384311376e+04 1.810670241315022011e+01
1.243083826448315854e+01 7.626427536457067724e-01 1.255404840803032857e+04 1.909554325694947252e+01
1.243221734914680532e+01 7.876948308062420301e-01 1.074582446488830465e+04 2.011279182329339577e+01
1.243490356875309111e+01 8.131639857739295651e-01 9.211739607721136053e+03 2.115926421793372114e+01
1.243867122531769454e+01 8.390287510362417489e-01 7.907272683170602249e+03 2.223579999195808909e+01
1.244351572891858737e+01 8.652483486393386380e-01 6.798537899799765000e+03 2.334326281533490999e+01
1.244874384417150104e+01 8.918520971452463808e-01 5.851789357054058200e+03 2.448254116980785966e+01
1.245462917142249992e+01 9.187981292589185722e-01 5.043465503456637634e+03 2.565454906169619065e+01
1.246093327581807664e+01 9.460430098011097799e-01 4.353445286717160343e+03 2.686022675517263281e+01
1.246737822328244150e+01 9.736094071943377504e-01 3.762144962199593465e+03 2.810054152660690363e+01
1.247391310921301510e+01 1.001455702596595332e+00 3.255503373655579253e+03 2.937648844058048425e+01
1.248044824152519539e+01 1.029559170651307420e+00 2.820695844433802904e+03 3.068909114819484785e+01
1.248674974460422149e+01 1.057921830953798548e+00 2.446545740049919004e+03 3.221718336475095867e+01
1.249276723482338092e+01 1.086515108109629812e+00 2.124773145262819526e+03 3.406966807419529886e+01
1.249846921960459234e+01 1.115326860412551246e+00 1.847232135717616075e+03 3.597537153160514123e+01
1.250393500604170782e+01 1.144326407222169939e+00 1.608204365907142574e+03 3.793582262146762929e+01
1.250879539964107856e+01 1.173506690672110109e+00 1.401455347679029956e+03 3.995259415053164531e+01
1.251321924078827053e+01 1.202812630940699901e+00 1.222946489065398737e+03 4.202730410961997620e+01
1.251700986637456836e+01 1.232266266109065311e+00 1.068329552552225095e+03 4.416161697169113864e+01
1.252000007742276999e+01 1.261816614863586539e+00 9.342170510398710803e+02 4.635724502719244811e+01
1.252225200182131282e+01 1.291437434059928169e+00 8.179090727872958269e+02 4.861594975777562411e+01
1.252367295976817196e+01 1.321117657048169969e+00 7.168520222974175340e+02 5.093954324947648615e+01
1.252412450266234600e+01 1.350830341302479587e+00 6.289020190406768052e+02 5.332988964649343444e+01
1.252353561611535326e+01 1.380556299731906522e+00 5.522973289707593949e+02 5.578890664673021149e+01
1.252185543239366794e+01 1.410274251784273458e+00 4.854669388490058282e+02 5.831856704030310823e+01
1.251909726745564377e+01 1.439936545326298667e+00 4.272077436938171218e+02 6.152567762865638912e+01
1.251517680520249876e+01 1.469448259985230321e+00 3.763984016679000320e+02 6.496847288002231835e+01
1.250998612846331071e+01 1.498826228901231739e+00 3.319957031685713105e+02 6.851017380755664021e+01
1.250361073498298481e+01 1.528001307021382704e+00 2.932311985013292883e+02 7.215362180380925849e+01
1.249588985658106921e+01 1.556999075406233501e+00 2.592295589417185511e+02 7.590173988972549068e+01
1.248681928137783537e+01 1.585788097960320719e+00 2.294422689491811411e+02 7.975753505969120738e+01
1.247635217363475846e+01 1.614349017522181073e+00 2.032482155833721436e+02 8.372410069394774723e+01
1.246449551121085442e+01 1.642653295573013095e+00 1.802364940317587809e+02 8.780461904031137976e+01
1.245120983711753126e+01 1.670655487547597406e+00 1.599919811614067839e+02 9.200236376718794418e+01
1.243640798047135654e+01 1.698398601768320137e+00 1.421251552068586079e+02 9.632070258993151413e+01
1.242008900391294013e+01 1.725789056768129770e+00 1.263804957658528281e+02 1.017357794574509171e+02
1.240224684288767243e+01 1.752719229770747678e+00 1.125319367611893284e+02 1.074703198891550215e+02
1.238287065023326861e+01 1.779222161598008389e+00 1.003118652355576472e+02 1.133696039543027041e+02
1.236193259530397981e+01 1.805214720292800390e+00 8.952418359876509157e+01 1.194383644584404038e+02
1.233944053226659143e+01 1.830715507601610836e+00 7.998977268289237941e+01 1.256814701726010952e+02
1.231531802671430498e+01 1.855733327030250956e+00 7.153555265309444167e+01 1.321039297393629965e+02
1.228954091632265921e+01 1.880265667361170845e+00 6.402895892805155142e+01 1.387108956911220901e+02
1.226215533333926366e+01 1.904250024142072117e+00 5.736755948736404065e+01 1.455076685838024559e+02
1.223310125083637701e+01 1.927709378190472833e+00 5.144061019155886783e+01 1.536593178497300869e+02
1.220249713977345429e+01 1.950480037705290215e+00 4.619128114717630496e+01 1.625262172289448586e+02
1.217027186729539956e+01 1.972564689210815958e+00 4.152851178806901089e+01 1.716478476085786440e+02
1.213641630220937095e+01 1.993970773405266961e+00 3.737836229766077167e+01 1.810315269788102910e+02
1.210091471896597604e+01 2.014687573326591874e+00 3.367824712858730862e+01 1.906847835632815702e+02
1.206379090388248798e+01 2.034725938862340211e+00 3.037477132844978200e+01 2.006153618587476331e+02
1.202497184881798375e+01 2.054103977592458996e+00 2.741748920410172730e+01 2.108312288482382257e+02
1.198456219300835812e+01 2.072698734557175460e+00 2.477815581438654036e+01 2.232553790644502669e+02
1.194261224314066006e+01 2.090386161278833477e+00 2.242992061175117513e+01 2.363730105442521392e+02
1.189900180915248917e+01 2.107147902777636972e+00 2.033533219604152720e+01 2.498674893578368881e+02
1.185368089051337570e+01 2.123023707210765387e+00 1.846039970650852169e+01 2.637496416908005585e+02
1.180662787711563766e+01 2.137993838691887749e+00 1.677976206442959040e+01 2.780306047467135500e+02
1.175780398724708142e+01 2.152091039095923808e+00 1.526760005604398351e+01 2.936855600273003688e+02
1.170744403698266112e+01 2.165089369711533873e+00 1.391998472676055343e+01 3.116915281769553872e+02
1.165538284189044127e+01 2.176936593050378566e+00 1.271682665472250306e+01 3.302147772930577503e+02
1.160146613193657394e+01 2.187610862644294052e+00 1.163912648772026692e+01 3.492701679816038904e+02
1.154560248276461643e+01 2.197176277441846182e+00 1.066996572293996515e+01 3.692291103499361498e+02
1.148805041601725208e+01 2.205495464965140151e+00 9.802710125078499814e+00 3.928095655968264737e+02
1.142865155046725789e+01 2.212433528698266372e+00 9.029181655282499719e+00 4.170674473824070674e+02
1.136727318737082726e+01 2.218079395669869669e+00 8.333524831091644103e+00 4.420222170237104251e+02
1.130388590088710998e+01 2.222335871742716851e+00 7.710491436655768638e+00 4.707655428143340259e+02
1.123870296082898435e+01 2.225102650747278865e+00 7.154286284032412624e+00 5.011532973038167711e+02
1.117142619553336935e+01 2.226396824063074042e+00 6.655982129967533467e+00 5.328980293460958819e+02
