# Radius[km]  Mass[Solar Mass] Lambda Central_pressure[MeV fm-3]
1.932035184735442357e+01 1.560808043384845911e-01 1.639144541393330693e+07 2.316854228966140461e+00
1.829907959558421027e+01 1.638987038558386011e-01 1.258734547908043489e+07 2.522700246974268978e+00
1.743673758223609838e+01 1.721102340881872084e-01 9.736116004610205069e+06 2.741493198280486876e+00
1.670284467932723871e+01 1.807164317514244056e-01 7.565989315627836622e+06 2.973786064722956368e+00
1.607283006616257381e+01 1.897192272809568869e-01 5.913504148981625214e+06 3.220203048710374993e+00
1.552844912032830926e+01 1.991226274804236973e-01 4.645447843183953315e+06 3.481397909218664211e+00
1.505573708204354944e+01 2.089248719875535232e-01 3.664902522578767501e+06 3.758055290047736197e+00
1.464258019245838938e+01 2.191365930106171367e-01 2.903356415840236004e+06 4.050892095750667110e+00
1.428007412532528342e+01 2.297609978188760449e-01 2.309404971998795867e+06 4.360658920494384638e+00
1.396062404809073243e+01 2.408004013364793139e-01 1.843142032200986752e+06 4.688141535170105456e+00
1.367827271758387297e+01 2.522649296885445813e-01 1.476191590439354302e+06 5.034162438168165998e+00
1.342783840007961338e+01 2.641568413547635830e-01 1.186093650838417700e+06 5.399582475362218581e+00
1.320534014941116041e+01 2.764793562446253850e-01 9.558467023239163682e+05 5.785302535010126590e+00
1.300701719754889396e+01 2.892449717817478505e-01 7.727703473175182007e+05 6.192265323471703553e+00
1.282974209548801703e+01 3.024829758443718375e-01 6.261575364359264495e+05 6.652065734675729480e+00
1.267005158980369472e+01 3.163826540449596880e-01 5.073797970166645246e+05 7.162520489764836462e+00
1.252700958920245355e+01 3.309559376514408791e-01 4.114857819459259044e+05 7.688353776763636738e+00
1.239976600340266621e+01 3.461889077897899458e-01 3.340224337692843983e+05 8.230028906555867607e+00
1.228710545841070179e+01 3.620529391058724955e-01 2.716895543438553577e+05 8.788023148248132799e+00
1.218783988552323372e+01 3.785369222254038046e-01 2.214589477635930234e+05 9.362828149690866297e+00
1.210074163170181372e+01 3.956102185049500952e-01 1.809839933027147781e+05 9.954950370668550264e+00
1.202467328344466679e+01 4.132683452542930680e-01 1.482533845511307009e+05 1.056491152914061438e+01
1.195843299449940389e+01 4.314855408377339385e-01 1.217789385944825481e+05 1.119324906092630201e+01
1.190107515952743888e+01 4.502474895600737659e-01 1.003063482139836269e+05 1.184051659323856143e+01
1.185159904055781510e+01 4.695405983281966678e-01 8.284920578876219224e+04 1.250728443248405597e+01
1.180912407248424500e+01 4.893479409420437021e-01 6.860658182580012362e+04 1.319414006675930118e+01
1.177290271209558981e+01 5.096535155816136475e-01 5.696918646910094685e+04 1.390168868348548337e+01
1.174221527896633432e+01 5.304482492227035051e-01 4.742826553761057585e+04 1.463055370263812804e+01
1.171638077833419800e+01 5.517123654131376176e-01 3.958085887881820963e+04 1.538137732604148411e+01
1.169482510748546034e+01 5.734318528132377191e-01 3.311487273044863832e+04 1.615482110321153897e+01
1.167696596414590360e+01 5.955987681876873108e-01 2.776737317990801967e+04 1.695156651424625949e+01
1.166241438929866092e+01 6.182200154907986356e-01 2.333344718502792966e+04 1.789709655307537162e+01
1.165090814120221907e+01 6.414552450670358841e-01 1.962404883750332374e+04 1.902969812164524654e+01
1.164241291934984446e+01 6.653123063490348210e-01 1.652286293681122697e+04 2.019642171413509857e+01
1.163671339993962128e+01 6.897735868997856290e-01 1.392846486735880717e+04 2.139829532887082664e+01
1.163360980361580665e+01 7.147986890392348247e-01 1.175814658708819479e+04 2.263637793480775073e+01
1.163287273688797896e+01 7.403852785487442523e-01 9.940341640021251806e+03 2.391176040458649510e+01
1.163417100174679319e+01 7.664857077670278462e-01 8.417014809212625551e+03 2.522556647569917132e+01
1.163729607615695016e+01 7.930851881787805979e-01 7.138677202435425897e+03 2.657895374061270743e+01
1.164196589342127908e+01 8.201526730331383241e-01 6.064276660610837098e+03 2.797311466672175229e+01
1.164805090293095269e+01 8.476798797131426255e-01 5.160071929637720132e+03 2.940927764702983183e+01
1.165517409160053930e+01 8.756280498258318667e-01 4.397728127969697198e+03 3.088870808248452349e+01
1.166322409066956745e+01 9.039774384323658873e-01 3.754126397607933086e+03 3.241270949692017922e+01
1.167195492422120040e+01 9.327051841723054126e-01 3.209726249676321004e+03 3.398262468559077121e+01
1.168114293610507737e+01 9.617844921488006849e-01 2.748479859406674223e+03 3.559983689830467313e+01
1.169070701022402403e+01 9.911916116595343995e-01 2.357114099190125216e+03 3.726577105820394564e+01
1.170040154876257610e+01 1.020914691788395556e+00 2.024419956864171581e+03 3.911823325973662691e+01
1.171020692065098601e+01 1.050948702619392217e+00 1.741125102943610500e+03 4.140447521189010871e+01
1.172004890822170253e+01 1.081277420881839202e+00 1.499250788932154592e+03 4.375959505079837442e+01
1.172976815602280709e+01 1.111877133195789957e+00 1.292799933040860878e+03 4.618566786885456565e+01
1.173937934284885110e+01 1.142714359884704267e+00 1.116334357071853219e+03 4.868483127501035312e+01
1.174875557511726676e+01 1.173755916367813512e+00 9.654097772038620633e+02 5.125928727821992936e+01
1.175767816301223512e+01 1.204976888818856784e+00 8.358656234142795256e+02 5.391130422762647356e+01
1.176613169329963426e+01 1.236344830316478793e+00 7.246990421602947663e+02 5.664321881120113744e+01
1.177400495183023565e+01 1.267827244449751811e+00 6.292224697677569338e+02 5.945743811459514205e+01
1.178117466239829447e+01 1.299406939830947127e+00 5.470030485126886788e+02 6.235644174201910772e+01
1.178754075565570858e+01 1.331040116135330686e+00 4.760730375915555896e+02 6.534278400101845818e+01
1.179304468839643327e+01 1.362713613921278100e+00 4.148745666357079358e+02 6.841909615306990133e+01
1.179759988467864495e+01 1.394381929277870524e+00 3.619770923309858404e+02 7.170672912995851789e+01
1.180106580373277758e+01 1.425995603075354667e+00 3.162100985417282004e+02 7.583157704545031663e+01
1.180351804853663822e+01 1.457487514666806261e+00 2.766236125088676090e+02 8.008069475108233348e+01
1.180482281184056248e+01 1.488841177240507907e+00 2.423499498346926657e+02 8.445782613779508097e+01
1.180496040608488606e+01 1.520018768218005301e+00 2.125832107324782498e+02 8.896682788918231211e+01
1.180389942010953241e+01 1.551001355676672855e+00 1.867196117884955981e+02 9.361167287960940087e+01
1.180152216527764963e+01 1.581771418259222406e+00 1.641976568459040209e+02 9.839645367470615156e+01
1.179783203696017324e+01 1.612289233635928243e+00 1.445745960011431919e+02 1.033253861373202938e+02
1.179273140719704926e+01 1.642539610223600510e+00 1.274343390169372014e+02 1.084028131421074903e+02
1.178626112412222682e+01 1.672484803293943445e+00 1.124537219542120710e+02 1.136332084020313857e+02
1.177825937764761655e+01 1.702113511072102181e+00 9.933276220157414116e+01 1.194997198709187103e+02
1.176874532159963316e+01 1.731316193405981751e+00 8.785857865461780136e+01 1.263979958502081331e+02
1.175776132893156678e+01 1.760005877589515322e+00 7.783351533244402276e+01 1.335040970210775413e+02
1.174520248698993008e+01 1.788224258599743433e+00 6.903657254150735412e+01 1.408242845581140443e+02
1.173106992430832740e+01 1.815906460414841606e+00 6.131489955261218938e+01 1.483650082670656900e+02
1.171536894334791512e+01 1.843054568573882390e+00 5.453041890020444526e+01 1.561329122677554437e+02
1.169797298124912999e+01 1.869677089387624003e+00 4.853651482735755707e+01 1.641348408482048455e+02
1.167896891141372784e+01 1.895722479358894041e+00 4.325647777427953145e+01 1.723778444951252027e+02
1.165829174978484239e+01 1.921208661795712036e+00 3.858578659865305838e+01 1.814257216830947641e+02
1.163595134307737844e+01 1.945975689852889268e+00 3.447089304309827895e+01 1.921637268798347122e+02
1.161198231637048472e+01 1.970023358488968812e+00 3.083636763477458231e+01 2.032252372529258082e+02
1.158633782034792503e+01 1.993318711573080382e+00 2.762474008711721041e+01 2.146199990817945888e+02
1.155900628685314935e+01 2.015869691015111265e+00 2.477627080240683100e+01 2.263580522732013662e+02
1.152997072373499421e+01 2.037653129870595770e+00 2.224984219127106400e+01 2.384497392073876370e+02
1.149925353929670813e+01 2.058698086040728903e+00 2.000275043886236404e+01 2.509057138507301659e+02
1.146678651754034561e+01 2.078982184465092864e+00 1.800003579995640024e+01 2.650109943914769133e+02
1.143274280658497410e+01 2.098381144042031021e+00 1.622254806513206660e+01 2.810820257027722278e+02
1.139710680486860461e+01 2.116888300965676706e+00 1.464207273817935118e+01 2.976372309107318301e+02
1.135980160969567621e+01 2.134477960152587617e+00 1.323464112463423881e+01 3.146911967806773305e+02
1.132085278850241394e+01 2.151216375248989898e+00 1.197561779721499420e+01 3.322589495351666073e+02
1.128024274036172692e+01 2.167069963729513660e+00 1.085013732808274511e+01 3.503559680935745746e+02
1.123803956368182888e+01 2.182015185606395402e+00 9.842133104174200398e+00 3.710808644007680073e+02
1.119428013969081803e+01 2.195672646564509112e+00 8.951803274129330745e+00 3.940275609959412577e+02
1.114869849387923573e+01 2.207988742201208332e+00 8.162295924309580286e+00 4.176655754842141164e+02
1.110104386839364032e+01 2.218969763975833231e+00 7.459270882279936288e+00 4.420157352830468085e+02
1.105158069611312932e+01 2.228376682895592875e+00 6.839181936701843156e+00 4.693623489139046683e+02
1.100040634396744110e+01 2.234717806014683283e+00 6.327628918403534364e+00 4.995823779888772833e+02
