# Radius[km]  Mass[Solar Mass] Lambda Central_pressure[MeV fm-3]
1.884436508424311540e+01 1.680473027059321278e-01 1.357226355672924779e+07 2.175054927659989978e+00
1.801715038453269102e+01 1.764901321124908440e-01 1.061758748420568742e+07 2.346957246764247884e+00
1.731419534363556423e+01 1.852718285908245277e-01 8.361183515993334353e+06 2.528528587396723815e+00
1.671188065117856070e+01 1.943874713167954016e-01 6.623604270643998869e+06 2.720180021913184198e+00
1.619171799184805849e+01 2.038375039868107197e-01 5.274755204294119962e+06 2.922375597942687087e+00
1.574000803737627407e+01 2.136170911310127929e-01 4.221542804488012567e+06 3.135616511433536147e+00
1.534505381075977404e+01 2.237243627318730721e-01 3.394003058342735283e+06 3.361284364350645149e+00
1.499781415306801158e+01 2.341659392783635441e-01 2.739579801022283733e+06 3.599099915005963712e+00
1.469146751965033459e+01 2.449297243817530056e-01 2.220135502438944299e+06 3.849618701161862333e+00
1.441992023264143441e+01 2.560237164472291549e-01 1.805955875715941889e+06 4.113610137124146249e+00
1.417830520287554563e+01 2.674412472614937086e-01 1.474087648827538826e+06 4.392529426125189040e+00
1.396247488106619272e+01 2.791893804202109641e-01 1.207146872433449375e+06 4.686073150930547548e+00
1.376922097708262704e+01 2.912662673314570516e-01 9.916065248955688439e+05 4.994902100728689121e+00
1.359560801251213924e+01 3.036641325783219769e-01 8.169427290754525457e+05 5.321221406696649225e+00
1.343928201552997415e+01 3.163932020870525719e-01 6.748983084457123186e+05 5.664371991548199148e+00
1.329809072795105251e+01 3.294527802415180839e-01 5.590338578758421354e+05 6.025607069381534231e+00
1.317042411341444463e+01 3.428349999700748829e-01 4.642774137959282380e+05 6.406571729283216499e+00
1.305462156662042617e+01 3.565424681248585692e-01 3.865333444493772695e+05 6.806853715527567239e+00
1.294940323163302942e+01 3.705814483468052867e-01 3.225072430977727636e+05 7.229281272139306047e+00
1.285361019074136912e+01 3.849435720299750341e-01 2.697242689741276554e+05 7.673110674821875143e+00
1.276627747021828263e+01 3.996292909821979600e-01 2.260594153273703705e+05 8.141053338134737416e+00
1.268640505213326719e+01 4.146425570035028874e-01 1.898963272666700650e+05 8.632786737338198790e+00
1.261341849064314857e+01 4.299704701382565664e-01 1.597744021082069085e+05 9.151265429059357359e+00
1.254642856958456854e+01 4.456245779554660613e-01 1.347055356151807937e+05 9.695973608515382480e+00
1.248487791263375080e+01 4.615953221356522973e-01 1.137871684194419940e+05 1.027017609232049722e+01
1.242822436844369527e+01 4.778807677868714410e-01 9.627172902853411506e+04 1.087398889023697457e+01
1.237598562641872668e+01 4.944809013885880788e-01 8.160495070388657041e+04 1.150898595291113047e+01
1.232765114879240187e+01 5.113961507324985556e-01 6.928340334137558239e+04 1.217822005149968767e+01
1.228292185755410415e+01 5.286282715135472987e-01 5.891561151495321246e+04 1.290216237241168429e+01
1.224125211839094085e+01 5.464350460916104213e-01 5.006772401320331846e+04 1.373226026489895446e+01
1.220294470741891679e+01 5.649440392102140773e-01 4.250208188979368424e+04 1.458576723166274292e+01
1.216823899239946094e+01 5.841156702593033323e-01 3.607083147246272711e+04 1.546334341744438490e+01
1.213713212196711311e+01 6.039454254578824344e-01 3.060863837889315982e+04 1.636566758331634475e+01
1.210954682629741086e+01 6.244007118376107002e-01 2.598542518372070845e+04 1.729343763166985681e+01
1.208533384141911426e+01 6.454588795781506239e-01 2.207421661817808126e+04 1.824737114600733534e+01
1.206429898340707929e+01 6.670973178744771248e-01 1.876767272179487190e+04 1.922820594595716770e+01
1.204627964293894138e+01 6.892964226735016631e-01 1.597259883064897258e+04 2.023670065794006945e+01
1.203103448944439968e+01 7.120289114170170741e-01 1.361092961932389881e+04 2.127363530192854313e+01
1.201824193582888611e+01 7.352770564333808156e-01 1.161250392794944491e+04 2.233981189475309392e+01
1.200777994526048964e+01 7.590173873823182760e-01 9.919705087200318303e+03 2.343605507042194347e+01
1.199936817646749354e+01 7.832303916398146715e-01 8.485810200934476597e+03 2.456321271793397543e+01
1.199281551856917361e+01 8.078942375873823245e-01 7.269344882962232077e+03 2.572215663707827815e+01
1.198781670246465936e+01 8.329864008132795705e-01 6.235459153108154169e+03 2.691378321272747698e+01
1.198423232564187657e+01 8.584813918590228354e-01 5.356992542292927283e+03 2.813901410814634829e+01
1.198188776305035574e+01 8.843745805849575481e-01 4.608387317901308052e+03 2.939879697785204016e+01
1.198054984845741444e+01 9.106406471082746368e-01 3.969557405163751355e+03 3.079252040594953854e+01
1.198020298442350295e+01 9.374375392132000551e-01 3.420840801476616889e+03 3.254670146858285307e+01
1.198110352156619918e+01 9.648239224584246321e-01 2.949089933882083187e+03 3.435035110011787651e+01
1.198317127639549184e+01 9.927662213681258674e-01 2.543822453942452739e+03 3.620486433289271844e+01
1.198639363171993644e+01 1.021235932495473842e+00 2.195743058270740676e+03 3.811167553968451216e+01
1.199061827667575741e+01 1.050188587593533285e+00 1.897083791911704338e+03 4.007225954312490046e+01
1.199576072836234886e+01 1.079598572625634745e+00 1.640554310725685809e+03 4.208813275640103768e+01
1.200170962021080179e+01 1.109431694964496673e+00 1.420221693683739431e+03 4.416085435612501442e+01
1.200838851587134215e+01 1.139663490532925705e+00 1.230832542356889917e+03 4.629202748827869840e+01
1.201553824260624381e+01 1.170245027592806020e+00 1.067948623980016691e+03 4.848330050816641545e+01
1.202312319415254827e+01 1.201165044257025194e+00 9.276095365485829234e+02 5.073636825533506567e+01
1.203103982025161045e+01 1.232375017869060008e+00 8.067272716590316577e+02 5.305297336444728984e+01
1.203907835809466498e+01 1.263851127480190017e+00 7.024277399845689160e+02 5.543490761312176573e+01
1.204718466392755438e+01 1.295559049372847493e+00 6.122801932273167722e+02 5.788401330778311404e+01
1.205526906942967180e+01 1.327476218904596772e+00 5.343418097585157511e+02 6.040218470859350219e+01
1.206322122684221831e+01 1.359572158084701554e+00 4.668758533241572195e+02 6.299136949456738677e+01
1.207077311499746308e+01 1.391805820405091154e+00 4.083646728754256969e+02 6.565357027000364099e+01
1.207803704068022199e+01 1.424144281078260965e+00 3.576358423233344297e+02 6.875784029629730298e+01
1.208479210230647460e+01 1.456487682014971696e+00 3.136215059240860228e+02 7.240583755463117654e+01
1.209098273499443010e+01 1.488789258220725165e+00 2.754240499215306386e+02 7.615670971429157987e+01
1.209656631954920414e+01 1.521015203808276484e+00 2.422334147646484155e+02 8.001335788637406665e+01
1.210146337029494745e+01 1.553149029170431517e+00 2.133382586420578662e+02 8.397876499440356213e+01
1.210552826177581842e+01 1.585154482996933734e+00 1.881425179444052844e+02 8.805599808147566421e+01
1.210885868675190657e+01 1.617009581094139170e+00 1.661442685243217454e+02 9.224821068246035338e+01
1.211110820726495874e+01 1.648700381890768174e+00 1.468780342246933515e+02 9.655864526310266172e+01
1.211246294318385530e+01 1.680184895781281273e+00 1.300193159804953780e+02 1.009906357279071756e+02
1.211276644524289559e+01 1.711442557388821228e+00 1.152152513638288838e+02 1.055476099987452443e+02
1.211199875802890524e+01 1.742460339434863004e+00 1.022204693819869163e+02 1.102330926661806672e+02
1.211010734173538239e+01 1.773200342761688253e+00 9.078786073201399631e+01 1.150507077155629787e+02
1.210695491683983782e+01 1.803666322571269465e+00 8.069825542471900803e+01 1.200041813299981897e+02
1.210247753791251490e+01 1.833581289390774804e+00 7.186388423878010201e+01 1.263570747548964732e+02
1.209643307012335001e+01 1.862717068191739100e+00 6.414533885409477421e+01 1.329610389027579060e+02
1.208856823859156293e+01 1.891010952312017990e+00 5.738038567225466124e+01 1.397512373353415853e+02
1.207875943768306648e+01 1.918477915352699625e+00 5.142570680829408047e+01 1.467329219298580369e+02
1.206700161792363879e+01 1.945122638439325868e+00 4.617182874451288654e+01 1.539114926684396210e+02
1.205321526540697263e+01 1.970959929764161567e+00 4.151799629838077976e+01 1.612925018147556386e+02
1.203738333689082474e+01 1.995995435280441210e+00 3.738667046726794752e+01 1.688816582084092488e+02
1.201945715059798125e+01 2.020210240208104135e+00 3.371248442671829793e+01 1.770116529044107949e+02
1.199931862937779670e+01 2.043116577240154275e+00 3.048724391425986013e+01 1.867423520054925916e+02
1.197643688279371155e+01 2.064412787453606235e+00 2.766515654316303596e+01 1.967474604986250881e+02
1.195058580221367706e+01 2.084123999054242393e+00 2.517892667403043205e+01 2.070347168323680194e+02
1.192158504707453837e+01 2.102307956402110989e+00 2.297294501750560869e+01 2.176120776824552649e+02
1.188946087575419419e+01 2.118732172228072752e+00 2.102938082962662847e+01 2.298845156725428467e+02
1.185381292383667606e+01 2.132689221063717611e+00 1.935487195419420203e+01 2.429558560597459120e+02
1.181401441767307148e+01 2.144137582014865373e+00 1.789861867104194104e+01 2.568305792679168462e+02
1.177000159657142397e+01 2.152496632256545528e+00 1.666454033830435577e+01 2.725577243374320346e+02
1.172125556979974981e+01 2.157535287248533162e+00 1.562523466294603303e+01 2.899008991034554015e+02
1.166725977985247908e+01 2.159039212153321063e+00 1.476014757942083300e+01 3.089771435192175772e+02
