# Radius[km]  Mass[Solar Mass] Lambda Central_pressure[MeV fm-3]
1.892778160837226764e+01 1.649706691380885548e-01 1.416428285262908973e+07 2.210998344649870884e+00
1.801979128295404209e+01 1.737155206805243990e-01 1.089807076183581911e+07 2.396056767056536252e+00
1.725546109020223895e+01 1.828761986478402712e-01 8.446545036025622860e+06 2.591851223840175855e+00
1.660509214278899037e+01 1.924674975161223822e-01 6.584383797760373913e+06 2.798816194696682302e+00
1.604839897990061814e+01 2.024834596286149146e-01 5.159989249453440309e+06 3.017435780935333156e+00
1.556848000721245029e+01 2.129340096132890103e-01 4.064218623516084161e+06 3.248217062057886739e+00
1.515263704786653953e+01 2.238197456730141310e-01 3.214936935687191784e+06 3.491691483376092364e+00
1.479067917178204716e+01 2.351460234697067553e-01 2.554648614926427137e+06 3.748416297139395503e+00
1.447407864073786854e+01 2.469205000973847541e-01 2.037467136160988128e+06 4.018976060336842515e+00
1.419650154127428365e+01 2.591444217597904665e-01 1.630895975756161613e+06 4.303984192326455904e+00
1.395234378167892153e+01 2.718260702064166923e-01 1.310325439318921417e+06 4.604084595429034366e+00
1.373701073897486502e+01 2.849695321705098539e-01 1.056245445994973648e+06 4.919953341599731189e+00
1.354690660174621186e+01 2.985797400155464909e-01 8.540008365157736698e+05 5.252300428257866471e+00
1.337883212488145190e+01 3.126611987445447882e-01 6.925441148504088633e+05 5.601871606311952689e+00
1.322996702262694768e+01 3.272205398614360661e-01 5.633833319648827892e+05 5.969450283360452580e+00
1.309826603456537164e+01 3.422596020567004182e-01 4.595352267422017758e+05 6.361973871329094088e+00
1.298110726817048466e+01 3.578797299881086857e-01 3.754419458883752814e+05 6.831437182134791009e+00
1.287740770884873065e+01 3.741232609650786411e-01 3.071711512370698038e+05 7.314839887553535647e+00
1.278610255105451010e+01 3.909731440655803136e-01 2.517605625276665087e+05 7.812595878762144785e+00
1.270618466701481530e+01 4.084063063717867648e-01 2.067969497556642455e+05 8.325131336273585703e+00
1.263655434953438927e+01 4.264119912350540220e-01 1.702401594195411599e+05 8.852885094834302748e+00
1.257625617404140250e+01 4.449788879411624709e-01 1.404887900369188283e+05 9.396309019156161568e+00
1.252428411908707773e+01 4.640831923969653827e-01 1.162357893000359472e+05 9.955868390804656798e+00
1.247980747516343669e+01 4.837146372980232756e-01 9.638835914906943799e+04 1.053204230657472174e+01
1.244199711735300440e+01 5.038565346353058860e-01 8.015727447416502400e+04 1.112532408869514455e+01
1.241008461913777872e+01 5.244952724066860306e-01 6.680182076740583580e+04 1.173622170721292868e+01
1.238341962711005273e+01 5.456209880438006588e-01 5.581633670992832776e+04 1.236525821491904154e+01
1.236147836190635729e+01 5.672184174879978391e-01 4.674391204742007540e+04 1.301297219518820647e+01
1.234362730037657663e+01 5.892780206270343824e-01 3.924626877278950269e+04 1.367991822311592820e+01
1.232935414346808756e+01 6.117827783015925558e-01 3.301717515272300079e+04 1.436666734034776916e+01
1.231813817571316783e+01 6.347181030638279209e-01 2.783905466423655889e+04 1.507380754400727874e+01
1.230957601338340801e+01 6.580764278813477919e-01 2.352125783007431892e+04 1.580194429014130009e+01
1.230329862162862220e+01 6.818449834335914561e-01 1.991254109390764643e+04 1.655170101211371403e+01
1.229914628403476584e+01 7.060081787989173074e-01 1.689089491859787813e+04 1.732371965439130435e+01
1.229665798984369296e+01 7.305777226301786165e-01 1.435227056417966196e+04 1.829215780064148689e+01
1.229554171831189713e+01 7.556396957464398545e-01 1.220805316070601657e+04 1.941855200495800204e+01
1.229622030704457636e+01 7.811735765790495112e-01 1.039946355674501865e+04 2.057839132190083120e+01
1.229809493384731311e+01 8.071729928021867950e-01 8.869976711971667100e+03 2.177266881016496569e+01
1.230101157562445557e+01 8.336080580117972705e-01 7.574042297143709220e+03 2.300240701453453340e+01
1.230505268914272676e+01 8.604463702021638571e-01 6.477951972345417744e+03 2.426865884138939222e+01
1.231009543493882141e+01 8.876653107853342828e-01 5.549913496705769830e+03 2.557250846020744817e+01
1.231551424241151516e+01 9.152653317665364607e-01 4.760310510473462273e+03 2.691507223183456787e+01
1.232143560833931772e+01 9.431973606069894434e-01 4.089258342629120307e+03 2.829749966431684527e+01
1.232761965755228672e+01 9.714533762729976596e-01 3.517640395866954350e+03 2.972097439711360067e+01
1.233378435074801871e+01 1.000029529033094944e+00 3.029500915426798201e+03 3.118671521453389772e+01
1.234009499194049120e+01 1.028869392171820829e+00 2.613237117476297954e+03 3.269597708926412594e+01
1.234619971278350370e+01 1.057965658792351382e+00 2.257064094018571723e+03 3.425005225688018839e+01
1.235197359123380956e+01 1.087300823438988928e+00 1.951920796975520716e+03 3.585027132226447577e+01
1.235731150263137224e+01 1.116850608366651842e+00 1.689910762711901043e+03 3.754393183898847042e+01
1.236228003834189693e+01 1.146571843784863542e+00 1.465346103608568683e+03 3.976691230063872240e+01
1.236639423910212621e+01 1.176486488896339333e+00 1.271611918472606703e+03 4.205589792426612661e+01
1.237017927462868094e+01 1.206491475187798423e+00 1.105356852483512057e+03 4.441284854779218705e+01
1.237318299840138636e+01 1.236619650559783734e+00 9.619959560062940227e+02 4.683978220102171974e+01
1.237530046158685160e+01 1.266858805187122572e+00 8.380440257641436119e+02 4.933877683348730159e+01
1.237669488367222392e+01 1.297110116662994805e+00 7.312439486479920561e+02 5.191197209359736320e+01
1.237708000882270909e+01 1.327416224017142099e+00 6.386204645128273114e+02 5.456157116061099543e+01
1.237644133573596861e+01 1.357716587934872043e+00 5.584401149822485877e+02 5.728984263100812768e+01
1.237470993588687485e+01 1.388022946855618889e+00 4.888038233819094103e+02 6.009912246087032628e+01
1.237172612487659507e+01 1.418300382335649035e+00 4.282487464994459856e+02 6.299181596593479782e+01
1.236769676172981924e+01 1.448466207399987438e+00 3.757285977840060696e+02 6.597039988103468033e+01
1.236221910238332988e+01 1.478566866688389103e+00 3.298793051284843045e+02 6.972754786888425826e+01
1.235551275811320338e+01 1.508421155717069251e+00 2.900891705930642956e+02 7.373814901252600862e+01
1.234750232761436273e+01 1.538053203978002603e+00 2.554105439470643830e+02 7.786783369409286593e+01
1.233800412348564990e+01 1.567454597273664652e+00 2.251501048411007559e+02 8.212013776481927607e+01
1.232710860851940105e+01 1.596588100339593863e+00 1.986905093164627374e+02 8.649870206311240395e+01
1.231473239034920120e+01 1.625421363580203060e+00 1.755576452766252373e+02 9.100727553185120655e+01
1.230080107006480539e+01 1.653966464433320294e+00 1.552697379230514798e+02 9.564971842824516557e+01
1.228526087417111867e+01 1.682210738205298428e+00 1.374379113734537157e+02 1.004300056290009735e+02
1.226824199629091261e+01 1.710061897422084920e+00 1.218041939874333366e+02 1.053522300336261850e+02
1.224951208404686120e+01 1.737548101366202635e+00 1.080459989998326904e+02 1.114050946288968191e+02
1.222922144990237214e+01 1.764506925756365696e+00 9.597105595640569220e+01 1.178905828385160248e+02
1.220725495426751728e+01 1.790973518889164895e+00 8.535172345935008309e+01 1.245686394072196350e+02
1.218361144841304622e+01 1.816877631665286374e+00 7.600506629561455441e+01 1.314449821116378416e+02
1.215838972867493339e+01 1.842209373223211211e+00 6.776660087818275713e+01 1.385254985017204490e+02
1.213134790486074088e+01 1.867035017547805431e+00 6.046883917453934743e+01 1.458162509416792432e+02
1.210263896831542318e+01 1.891266596135600775e+00 5.401589110756805212e+01 1.533234818006058902e+02
1.207215330300814315e+01 1.914938790697268356e+00 4.829106899006407616e+01 1.616146506020457991e+02
1.204003644077886648e+01 1.937878368714238020e+00 4.324019076096244163e+01 1.713493910570190337e+02
1.200624956855128822e+01 1.960107570348295081e+00 3.876401687694682607e+01 1.813731772915753879e+02
1.197075012707852082e+01 1.981606024062268823e+00 3.479211726328891530e+01 1.916945917084075859e+02
1.193346189387654022e+01 2.002370498045074498e+00 3.126195258785572761e+01 2.023224715405544885e+02
1.189453254731840559e+01 2.022381685424194941e+00 2.812574540182910710e+01 2.132659164178721483e+02
1.185380795261322184e+01 2.041682186211316363e+00 2.532189086800029898e+01 2.245342961581703776e+02
1.181145568544402735e+01 2.060148775417109501e+00 2.283068647619845493e+01 2.384792358594705775e+02
1.176743633829835645e+01 2.077674202879533194e+00 2.061517817329036717e+01 2.528892394994329322e+02
1.172178242502777223e+01 2.094252420458231789e+00 1.864568428757370810e+01 2.677271077296399540e+02
1.167433515843733716e+01 2.109923975336983837e+00 1.688515676452705705e+01 2.830055447875205914e+02
1.162513552074418755e+01 2.124666619627824993e+00 1.530919856722927541e+01 2.987376321271557345e+02
1.157421287262468290e+01 2.138460710445375668e+00 1.389957667058240531e+01 3.171768966939791881e+02
1.152172875693656984e+01 2.151026624193006054e+00 1.265032361587807586e+01 3.369622823859958203e+02
1.146741492754831704e+01 2.162421048764914033e+00 1.153486882134323110e+01 3.573351395425217447e+02
1.141115428204940407e+01 2.172587032436016141e+00 1.053813961086169293e+01 3.783129114788898164e+02
1.135304583229930664e+01 2.181515794331789770e+00 9.647744358823025834e+00 4.025506989547719172e+02
1.129317134894442454e+01 2.188945239646865382e+00 8.858814531756980415e+00 4.284133989528405664e+02
1.123121141086362407e+01 2.194831433942283194e+00 8.157484119793048549e+00 4.550440191967178407e+02
1.116717470422828207e+01 2.199122320138135578e+00 7.534671704457191588e+00 4.855974072934222932e+02
1.110112373608957803e+01 2.201625419483002055e+00 6.986239002050482760e+00 5.178175129840594764e+02
1.103282526669674724e+01 2.202258114014389534e+00 6.502415224808517635e+00 5.534546696533620889e+02
