# Radius[km]  Mass[Solar Mass] Lambda Central_pressure[MeV fm-3]
1.900632660068274404e+01 1.606177809791342614e-01 1.494242725780699030e+07 2.268632241203834443e+00
1.802985522807799512e+01 1.693256761289546608e-01 1.139533459425335191e+07 2.460478818803331524e+00
1.721264831764934655e+01 1.785088806375906556e-01 8.753040826259197667e+06 2.663151174048367320e+00
1.652015605571073920e+01 1.882089946117819490e-01 6.756754714338081889e+06 2.902769322143964548e+00
1.592520839620392437e+01 1.985467757766989083e-01 5.232856860509566031e+06 3.166463064230756519e+00
1.541504526952306620e+01 2.095026980573341246e-01 4.065944502831716090e+06 3.438041140094399761e+00
1.497705838505142495e+01 2.210603647075847222e-01 3.172412420787252486e+06 3.717739288052432478e+00
1.460113256483798416e+01 2.331941799176008856e-01 2.486427714470554609e+06 4.005800294900543790e+00
1.427776711865224790e+01 2.458884035147710923e-01 1.958002567984270165e+06 4.302474206659151257e+00
1.399943961908876489e+01 2.591213105451067311e-01 1.549683660721079679e+06 4.608018545621213491e+00
1.375945966200135828e+01 2.728822611074751547e-01 1.232314386057411553e+06 4.922698533889710681e+00
1.355228713877524349e+01 2.871549962492184194e-01 9.845932831325889565e+05 5.246787323598733899e+00
1.337321389761054746e+01 3.019246372906178588e-01 7.903494991923134075e+05 5.580566234018173866e+00
1.321828055531623392e+01 3.171810259975029744e-01 6.372021374740682077e+05 5.924324995747675793e+00
1.308418705061020404e+01 3.329129769833728547e-01 5.159831792946379283e+05 6.278362002211940407e+00
1.296802166140484225e+01 3.491119669620764698e-01 4.195158037600959651e+05 6.642984568675586843e+00
1.286744280642732363e+01 3.657639265026612629e-01 3.424083468144517974e+05 7.018509199002492593e+00
1.278027178822700094e+01 3.828673522805680074e-01 2.805097520548691391e+05 7.405261860391095574e+00
1.270485812472350062e+01 4.004063017574936434e-01 2.306195155552494980e+05 7.803578266324198154e+00
1.263968868558774261e+01 4.183763960862975084e-01 1.902533584453393414e+05 8.213804167978809190e+00
1.258312034971786453e+01 4.367717067233056749e-01 1.574404164442197653e+05 8.636295654349080309e+00
1.253447798959883741e+01 4.555755623688112488e-01 1.306625616738975077e+05 9.071419461342742352e+00
1.249239240458553013e+01 4.747938205082652408e-01 1.087410233228461002e+05 9.519553290119405986e+00
1.245620507626896512e+01 4.944093021376873565e-01 9.075281591374646814e+04 9.981086134947100064e+00
1.242503701306302588e+01 5.144592271475481038e-01 7.589043523908821226e+04 1.060887054490808978e+01
1.239851179828014516e+01 5.350582102706823440e-01 6.355257939309423091e+04 1.131804811114676212e+01
1.237634412003224327e+01 5.561894919513227231e-01 5.330538642589768278e+04 1.204842979317151830e+01
1.235811631316755488e+01 5.778366806272237088e-01 4.477916842237913806e+04 1.280064958527053598e+01
1.234346762124049590e+01 5.999840074729666517e-01 3.768201432058829960e+04 1.357536043789882108e+01
1.233200974353910517e+01 6.226086057462781875e-01 3.176547638066997752e+04 1.437323482445981604e+01
1.232336937179754344e+01 6.457003443944647758e-01 2.682584919757293028e+04 1.519496532503347019e+01
1.231721481234716364e+01 6.692386481084526828e-01 2.269494260081802349e+04 1.604126522755755602e+01
1.231323725676896075e+01 6.932113630901941548e-01 1.923360141562597710e+04 1.691286914698401844e+01
1.231103096229403882e+01 7.175926763593130087e-01 1.632951832086091053e+04 1.781053366294792184e+01
1.231040145800027830e+01 7.423716562021824839e-01 1.388734926610162074e+04 1.873503797650233693e+01
1.231108194894305718e+01 7.675463088452574301e-01 1.182954866160050187e+04 1.968718458648942260e+01
1.231279278662909071e+01 7.930840700247241415e-01 1.009347585747633093e+04 2.066779998613464286e+01
1.231528959926793476e+01 8.189701036276848534e-01 8.626208191959209216e+03 2.167773538046892767e+01
1.231834672303106082e+01 8.451993641579769179e-01 7.382334796500022094e+03 2.271786742520140123e+01
1.232184558219167236e+01 8.717478362930480840e-01 6.327260211289515610e+03 2.378909898768418429e+01
1.232563201341380399e+01 8.986031422000995139e-01 5.431196249969581004e+03 2.515420705734767637e+01
1.232947163074213393e+01 9.257693055797744375e-01 4.667425164021383353e+03 2.668137735771380648e+01
1.233347097393940039e+01 9.532225178019221312e-01 4.017010172089019306e+03 2.825420941814634901e+01
1.233735238614588781e+01 9.809440578853999559e-01 3.461533300027571386e+03 2.987406850637730571e+01
1.234110969431954530e+01 1.008907240127177918e+00 2.987168301780341608e+03 3.154236071107893125e+01
1.234455296010017200e+01 1.037091147493527599e+00 2.581112026929101830e+03 3.326053416239300731e+01
1.234761407761246232e+01 1.065475211970233094e+00 2.233158125403838767e+03 3.503008028895330739e+01
1.235013692221154713e+01 1.094040763504892100e+00 1.934487848824321418e+03 3.685253511249262459e+01
1.235203646132777244e+01 1.122756252872298965e+00 1.677904823259419800e+03 3.872948058115803605e+01
1.235319164612116438e+01 1.151619569394992215e+00 1.457025427332272102e+03 4.066254594269155831e+01
1.235351690552458237e+01 1.180599420328726445e+00 1.266524312651043829e+03 4.265340915866862304e+01
1.235293389713819678e+01 1.209667287375604250e+00 1.102258372781791422e+03 4.470379836102139848e+01
1.235127729996517232e+01 1.238695089459291854e+00 9.607285688695806130e+02 4.717452779953130459e+01
1.234795000196605130e+01 1.267161318474647524e+00 8.401414626223360074e+02 4.995128196339264548e+01
1.234255872563357492e+01 1.295011363391540327e+00 7.370033064985650526e+02 5.281105992778447700e+01
1.233482680666127429e+01 1.322256762488106530e+00 6.481386116412187448e+02 5.575634406998893411e+01
1.232469918387694818e+01 1.348913908828083041e+00 5.713387097152163960e+02 5.878969098934177850e+01
1.231202866604340862e+01 1.375004402759240296e+00 5.045719722042399553e+02 6.191373372644098083e+01
1.229679439184182499e+01 1.400535176648449731e+00 4.463967304963276774e+02 6.513118404870893130e+01
1.227898346309006961e+01 1.425661225329158954e+00 3.953030262562920711e+02 6.900789228365208317e+01
1.225919356611426281e+01 1.450801179038237798e+00 3.499035545503204503e+02 7.323747680248010283e+01
1.223770825424357334e+01 1.476038581082997903e+00 3.095137303143022791e+02 7.759352414829805866e+01
1.221485001757507227e+01 1.501311596812563876e+00 2.737824196159755843e+02 8.207981550730495712e+01
1.219067636951939981e+01 1.526625052031994167e+00 2.421479954539875905e+02 8.670024512160267705e+01
1.216529172337339126e+01 1.551952330956242188e+00 2.141409940602190716e+02 9.145882366952041309e+01
1.213874374012733526e+01 1.577262566695663892e+00 1.894299862449751686e+02 9.635968174701002908e+01
1.211104914565228086e+01 1.602522651966749700e+00 1.675895524684410987e+02 1.014070734531330515e+02
1.208222207641265733e+01 1.627704137759675485e+00 1.483062254501074619e+02 1.066265946560715463e+02
1.205232686794756347e+01 1.652903248029307992e+00 1.312204041579173008e+02 1.132948148662997738e+02
1.202172274509163685e+01 1.678259124568413307e+00 1.160488674436435161e+02 1.201624121016289166e+02
1.199057540598535532e+01 1.703728962292266447e+00 1.026113227053301955e+02 1.272353476526110114e+02
1.195906519001014878e+01 1.729323976904022730e+00 9.071682268551690242e+01 1.345197610499188841e+02
1.192719049849426050e+01 1.754934567856769823e+00 8.022142342408044158e+01 1.420219753936520988e+02
1.189499704086314047e+01 1.780602950018596031e+00 7.093158384688733520e+01 1.497485028419868911e+02
1.186246627692926836e+01 1.806210574566839311e+00 6.275295687618683615e+01 1.577060502639341166e+02
1.182957409907923818e+01 1.831733004961807021e+00 5.553358561277362782e+01 1.659015250611131762e+02
1.179630503715241474e+01 1.857132102272123220e+00 4.916910059391763355e+01 1.743420411635935068e+02
1.176261522735147302e+01 1.882363034514599853e+00 4.355270308576173477e+01 1.830349252050101541e+02
1.172855134848636816e+01 1.907265798161563497e+00 3.861979595942241161e+01 1.939474511268236370e+02
1.169400027917020779e+01 1.931579905782698559e+00 3.430931770567728734e+01 2.054130818875732700e+02
1.165882850965350670e+01 1.955279780715572846e+00 3.053105997663828575e+01 2.172215302638055618e+02
1.162283689855991753e+01 1.978308993506798785e+00 2.721380502286114833e+01 2.293830463603719352e+02
1.158594013070835516e+01 2.000661461767830662e+00 2.429438175930412669e+01 2.419081867560173862e+02
1.154804353688703955e+01 2.022329253567978657e+00 2.171599646716857990e+01 2.548078236668237366e+02
1.150909512857883499e+01 2.043317260749791142e+00 1.943688763380913187e+01 2.680931543836343849e+02
1.146910710090813978e+01 2.063442071963178304e+00 1.742780020666502949e+01 2.840146077791636685e+02
1.142798496014199117e+01 2.082305330076231531e+00 1.567415596563754931e+01 3.010520598989724590e+02
1.138535847887428254e+01 2.099873021405672002e+00 1.413745954335928268e+01 3.185989247873841919e+02
1.134099840276147297e+01 2.116170106554954078e+00 1.278083639104292502e+01 3.366704336753942925e+02
1.129475811650994643e+01 2.131194040217862629e+00 1.158132145461192408e+01 3.560267590462611906e+02
1.124678323295301396e+01 2.144624278600161915e+00 1.053040140838537120e+01 3.785147763038751805e+02
1.119669336916188840e+01 2.156281320703150595e+00 9.610365827847669351e+00 4.016751759723707664e+02
1.114416890107520430e+01 2.166217233959964350e+00 8.798197163960361777e+00 4.259269234791247527e+02
1.108931318554298073e+01 2.174231105043799239e+00 8.087016710699574062e+00 4.541290027777758382e+02
1.103182837153385876e+01 2.180206772018107753e+00 7.463919221921468505e+00 4.831743125779630077e+02
1.097152536765910114e+01 2.184174228804161011e+00 6.914804310359330408e+00 5.159439850421184701e+02
1.090850555812816403e+01 2.186004646084171110e+00 6.434450181590401385e+00 5.508044113627046272e+02
