# Radius[km]  Mass[Solar Mass] Lambda Central_pressure[MeV fm-3]
1.913908558962476647e+01 1.615376857250790665e-01 1.513969424703916721e+07 2.244936937916961472e+00
1.818929337300075133e+01 1.697486623478600964e-01 1.166868076187461056e+07 2.440849622152449605e+00
1.738461282457237544e+01 1.783706950576335049e-01 9.047437240709060803e+06 2.648758958501042038e+00
1.669630111719625987e+01 1.874178420022237501e-01 7.050580817777313292e+06 2.869096354615671363e+00
1.610364319107356934e+01 1.969005305704030206e-01 5.520161632091505453e+06 3.102293598777765116e+00
1.559006286480886949e+01 2.068347693521321584e-01 4.338602990851584822e+06 3.348783410537365945e+00
1.514272335838172268e+01 2.172317900081350284e-01 3.423241857430416625e+06 3.608999927856727297e+00
1.475146739677576058e+01 2.281113540636027226e-01 2.710015167583840899e+06 3.883950469419388263e+00
1.440824847855170177e+01 2.394782898262346194e-01 2.152192408433553297e+06 4.173728022828836259e+00
1.410618023350848738e+01 2.513515391322843073e-01 1.714321902639096370e+06 4.478720691729327186e+00
1.384002541021074784e+01 2.637420454212214271e-01 1.369275650577613851e+06 4.800153178536672449e+00
1.360508148688458085e+01 2.766598079072580263e-01 1.097068449149481487e+06 5.138147806120517913e+00
1.339745373878160528e+01 2.901185446399823231e-01 8.811654939342071302e+05 5.493295926254358363e+00
1.321398222447687942e+01 3.041317993597342784e-01 7.095981715522672748e+05 5.866866534662187327e+00
1.305196698782763143e+01 3.187025283747859650e-01 5.729150942586106248e+05 6.258588513601695880e+00
1.290903678136267629e+01 3.338466545496475146e-01 4.636945590625602053e+05 6.670516875102038945e+00
1.278290873090129232e+01 3.495770539531444232e-01 3.762012025109020760e+05 7.101921429102508121e+00
1.267210112505470754e+01 3.659002464971957691e-01 3.059009245934588835e+05 7.555221424276091113e+00
1.257487337336813127e+01 3.828242139600482874e-01 2.493424156296227593e+05 8.029694590496923468e+00
1.249002962515357673e+01 4.003631054899888797e-01 2.036787914579024073e+05 8.548187985197884586e+00
1.241589491207262164e+01 4.186691941487186153e-01 1.664914001107093063e+05 9.148916278019106230e+00
1.235222817270118156e+01 4.377776649722657787e-01 1.362312229105258593e+05 9.767725601543771674e+00
1.229827580995136316e+01 4.576726886001486472e-01 1.116143234086372395e+05 1.040516016798094867e+01
1.225339597685399262e+01 4.783251561443693789e-01 9.161427256436081370e+04 1.106178056952015076e+01
1.221688471625444805e+01 4.997215880915569231e-01 7.534943871785803640e+04 1.173816427134438456e+01
1.218807238337250354e+01 5.218406457839908086e-01 6.210953118596102286e+04 1.243490611948224078e+01
1.216606325409107292e+01 5.446578092072414945e-01 5.131315004974172189e+04 1.315261886394560165e+01
1.215034088565660930e+01 5.681660383326815333e-01 4.249854952358567243e+04 1.389193369761294683e+01
1.214022535832893723e+01 5.923375333977920487e-01 3.528358055728024192e+04 1.465350081133235705e+01
1.213510682783143757e+01 6.171557580398780996e-01 2.936154644688035842e+04 1.543798996573212357e+01
1.213454034191602737e+01 6.426092186372668325e-01 2.449823492763374816e+04 1.624609108024216297e+01
1.213777381091145280e+01 6.686741162248498460e-01 2.048751037741453183e+04 1.707851483984410024e+01
1.214456237681605799e+01 6.953377003716958438e-01 1.717373458056735035e+04 1.793599332008345471e+01
1.215438821467251174e+01 7.225739083093793980e-01 1.442963758858434630e+04 1.881928063089400993e+01
1.216683058200509571e+01 7.503761747855933750e-01 1.215101627032286160e+04 1.972915357980014051e+01
1.218154927601563919e+01 7.787191520940958123e-01 1.025488423992264688e+04 2.066641235508068775e+01
1.219825814525589891e+01 8.075840049877206495e-01 8.672767970878787310e+03 2.163188122949495451e+01
1.221651893842834902e+01 8.369563901584539112e-01 7.349368312868460634e+03 2.262640928518985817e+01
1.223611711921000023e+01 8.668158658541126327e-01 6.240130912498995713e+03 2.365087116042570159e+01
1.225693189595457788e+01 8.971433070267643695e-01 5.308783640012579781e+03 2.470616781877729906e+01
1.227833793061724421e+01 9.279230759002786710e-01 4.523793411215984634e+03 2.579322734148690088e+01
1.230046978059164431e+01 9.591277947855766373e-01 3.862108365515871355e+03 2.691300574366573883e+01
1.232308106019067040e+01 9.907934831299191059e-01 3.301791660910727842e+03 2.840496253451972208e+01
1.234630251627107711e+01 1.023003471608951109e+00 2.825823914838811106e+03 3.004793129596174595e+01
1.237007334005550518e+01 1.055749536561556345e+00 2.421064899033880010e+03 3.174035098051732717e+01
1.239427056052739218e+01 1.088980084849230590e+00 2.076968120938750872e+03 3.348370998763392947e+01
1.241883672887039225e+01 1.122660660621622730e+00 1.784219392556918820e+03 3.527954151537502270e+01
1.244353160468915753e+01 1.156773590850195044e+00 1.534659669564737897e+03 3.712942490879203916e+01
1.246831839419225751e+01 1.191266357136185672e+00 1.321908735388387640e+03 3.903498704888016135e+01
1.249302334608351650e+01 1.226112350030468701e+00 1.140205659614631713e+03 4.099790378333977969e+01
1.251750938021506521e+01 1.261282100445972665e+00 9.848508657007291731e+02 4.301990140040170019e+01
1.254167039416878993e+01 1.296735922244655947e+00 8.518768967769912024e+02 4.510275814701231667e+01
1.256537799383401222e+01 1.332449117479236778e+00 7.378626452000537483e+02 4.724830579271390008e+01
1.258847709254635561e+01 1.368384927611543178e+00 6.399024117439992096e+02 4.945843124059528151e+01
1.261094154897057962e+01 1.404514659813632882e+00 5.557009281673006171e+02 5.173507818672990766e+01
1.263262952580527276e+01 1.440794516851729767e+00 4.831903908032420532e+02 5.408024882956048174e+01
1.265337186487151477e+01 1.477212178708193546e+00 4.206303931518478407e+02 5.649600563073343551e+01
1.267314812426279147e+01 1.513716271867427521e+00 3.666499106992005750e+02 5.898447312893203076e+01
1.269186038609741551e+01 1.550291374819998236e+00 3.199285404359819722e+02 6.154783980830305978e+01
1.270948633753646284e+01 1.586882606175604948e+00 2.795221906459011620e+02 6.420047741306152034e+01
1.272576499535620620e+01 1.623440794834350998e+00 2.444983148118490135e+02 6.786302902898535194e+01
1.274080252600804108e+01 1.659891811780636273e+00 2.141734268772846121e+02 7.163581801679893601e+01
1.275460040917861448e+01 1.696188638158376616e+00 1.878784174591379497e+02 7.552216235790857013e+01
1.276706624799289536e+01 1.732313587061379057e+00 1.650118598765571676e+02 7.952547990004012490e+01
1.277810942417764473e+01 1.768243877750853787e+00 1.451256315736663680e+02 8.364929136306720636e+01
1.278772393881558500e+01 1.803934681982086730e+00 1.277984982112194814e+02 8.789722343531018112e+01
1.279588187548209532e+01 1.839359766205932445e+00 1.126840268742725470e+02 9.227301196302924780e+01
1.280249531614512826e+01 1.874488734684315983e+00 9.947924391543385525e+01 9.678050523591669219e+01
1.280755449428093762e+01 1.909296793287892369e+00 8.791924176405071023e+01 1.014236673714772650e+02
1.281099071926140276e+01 1.943748714342515393e+00 7.779018556485949887e+01 1.062065818012736429e+02
1.281274029734153430e+01 1.977826546860903090e+00 6.889886163354404403e+01 1.111334548621025107e+02
1.281282889824716698e+01 2.011503594529268746e+00 6.108751745637088959e+01 1.162086194952601090e+02
1.281111023362499779e+01 2.044748638419205733e+00 5.421042523947706826e+01 1.214365390571496164e+02
1.280756734050022239e+01 2.077289427622503126e+00 4.819577103154022524e+01 1.277976896759292345e+02
1.280109593783273958e+01 2.108062840998322418e+00 4.302880304623943886e+01 1.349491200837932752e+02
1.279112780357863599e+01 2.136975685572592987e+00 3.857347846714621653e+01 1.423157979410005112e+02
1.277733813328609180e+01 2.164041418718803733e+00 3.470042619833890996e+01 1.499042018765534863e+02
1.275965558094286045e+01 2.189348952618821897e+00 3.130724969751127773e+01 1.577210055165792255e+02
1.273798084679371634e+01 2.212952818759410079e+00 2.831996966087705303e+01 1.657856165714894132e+02
1.271171600804686008e+01 2.232755261238515310e+00 2.585245813833829231e+01 1.757540719175737252e+02
1.267777327853823621e+01 2.246626578374778749e+00 2.391927095983197304e+01 1.867662165018194571e+02
1.263509258923899026e+01 2.255372281256627254e+00 2.234468724583592092e+01 1.989773370880250241e+02
1.258383250488969374e+01 2.259701196710477866e+00 2.102616178889842757e+01 2.128984039283585616e+02
1.252439641165162953e+01 2.260297679332002208e+00 1.989083447181799258e+01 2.276969972544932261e+02
