# Radius[km]  Mass[Solar Mass] Lambda Central_pressure[MeV fm-3]
1.944838582202664057e+01 1.524314225893847186e-01 1.729687223194364086e+07 2.369052706906089156e+00
1.838859854436176278e+01 1.599245468638673673e-01 1.328543901264710166e+07 2.573991240671533731e+00
1.749365930925861790e+01 1.678352599119988242e-01 1.027309111848396808e+07 2.790865258328358411e+00
1.673101884206408840e+01 1.761795698822327394e-01 7.986479848916586488e+06 3.020737378295391018e+00
1.607677149058972077e+01 1.849551737124066342e-01 6.241319770605180413e+06 3.263390777257347608e+00
1.551245547260509028e+01 1.941696963233596473e-01 4.896847408805801533e+06 3.519350488607959182e+00
1.502338571559384306e+01 2.038212190126663936e-01 3.861115305558521301e+06 3.789165006390308399e+00
1.459749007851920055e+01 2.139179527030220518e-01 3.053524588260028046e+06 4.073407517427703795e+00
1.422508242633564457e+01 2.244693551638199391e-01 2.424934882159478497e+06 4.372722211618161658e+00
1.389865877098002400e+01 2.354742406815081013e-01 1.932752759704689961e+06 4.688342360909105722e+00
1.361155579371469670e+01 2.469360703202082563e-01 1.545618477554785786e+06 5.020280973005183611e+00
1.335873366322824118e+01 2.588563621148360361e-01 1.240594847861738177e+06 5.369226854655862802e+00
1.313549638599858760e+01 2.712505082782851185e-01 9.987777590453099692e+05 5.735900887443024843e+00
1.293816911350251075e+01 2.841120354256978509e-01 8.065148149384214776e+05 6.121057621584833797e+00
1.276357135099134332e+01 2.974537245592908663e-01 6.533053355308398604e+05 6.525486936352514533e+00
1.260901985491086208e+01 3.112751707885307861e-01 5.307058336850662017e+05 6.950015769611503913e+00
1.247203793719830145e+01 3.255830516831804133e-01 4.322420341759874136e+05 7.395509919013934841e+00
1.235084238764008369e+01 3.403797609869474439e-01 3.530054492325172760e+05 7.862875917382737612e+00
1.224373389028865411e+01 3.556639933800854192e-01 2.890586924030315713e+05 8.353262606164401305e+00
1.214893044456485960e+01 3.714511244780721033e-01 2.372854794114496617e+05 8.868020863210768212e+00
1.206537660504501197e+01 3.877327384404117283e-01 1.952616790000891197e+05 9.407696255635388027e+00
1.199184610587087008e+01 4.045138129943826599e-01 1.610509499391624704e+05 9.973387183586666538e+00
1.192725435428821434e+01 4.218026285215436544e-01 1.331423460275095422e+05 1.056624398795346131e+01
1.187076900120921330e+01 4.395928004737870154e-01 1.103204165964904969e+05 1.118747134741992788e+01
1.182161607242354329e+01 4.578931031100210713e-01 9.161054112395083939e+04 1.183833076780923044e+01
1.177901523828391461e+01 4.766960246117268873e-01 7.622653778979621711e+04 1.252014316641502312e+01
1.174238142825985243e+01 4.960091898744826699e-01 6.355273629342830100e+04 1.323429155413193214e+01
1.171106400854942997e+01 5.158223983605663143e-01 5.309766397066543868e+04 1.398222381834869843e+01
1.168472452586436106e+01 5.361489708365715368e-01 4.444637179988873686e+04 1.476641600118387743e+01
1.166268413954717609e+01 5.569755369915768695e-01 3.727174021080806415e+04 1.558808711121584523e+01
1.164467422196607949e+01 5.783028018489352329e-01 3.131768183059333387e+04 1.644848028981822807e+01
1.163018255721606131e+01 6.001491778902419139e-01 2.635228728819609751e+04 1.740202267461569718e+01
1.161911635407059329e+01 6.226563060751838519e-01 2.219099617156300155e+04 1.845659361093926520e+01
1.161150117137260551e+01 6.458285023343385278e-01 1.870461789145293005e+04 1.954201565579071342e+01
1.160700774131492174e+01 6.696359931580564417e-01 1.578258358103094906e+04 2.065919134769504950e+01
1.160544561612301884e+01 6.940698923382319085e-01 1.333209251112803577e+04 2.180904962863015228e+01
1.160660104564980877e+01 7.190933414960272163e-01 1.128012427636947541e+04 2.299254661645062114e+01
1.161019466928887489e+01 7.446843074957801845e-01 9.558055200180731845e+03 2.421066639990867486e+01
1.161600921118692753e+01 7.708289814025396369e-01 8.111264312731939754e+03 2.546442185693310023e+01
1.162373915129846580e+01 7.974969562674327772e-01 6.894760246907892906e+03 2.675485549684671227e+01
1.163318096108416455e+01 8.246656502569991165e-01 5.870592807599839034e+03 2.808304032722246291e+01
1.164411213415333357e+01 8.523112340842902146e-01 5.006680030399395037e+03 2.945008074609932436e+01
1.165626745513022122e+01 8.804088684387068042e-01 4.277181587903182844e+03 3.085711346029943414e+01
1.166946357689228897e+01 9.089432950531304289e-01 3.659729252003673992e+03 3.230530843061043811e+01
1.168353182532584356e+01 9.378890617802971841e-01 3.136529973723052535e+03 3.379586984461877819e+01
1.169825001329036596e+01 9.672221823516004013e-01 2.692393037032788470e+03 3.533003711800282787e+01
1.171342920211832883e+01 9.969182321131633273e-01 2.314634192423885906e+03 3.690908592511860320e+01
1.172891159715668330e+01 1.026959124036921134e+00 1.992896795939763479e+03 3.853432925973481105e+01
1.174459071993961956e+01 1.057313317038788947e+00 1.718400104664804076e+03 4.020711852679936271e+01
1.176037157247320408e+01 1.088035141698319608e+00 1.483479259835244648e+03 4.244906979874443209e+01
1.177636075657241399e+01 1.119174437577550307e+00 1.281700598187327842e+03 4.476801762462851997e+01
1.179254453109593292e+01 1.150693568487054730e+00 1.108587624693148200e+03 4.715480546827019737e+01
1.180879769751666153e+01 1.182561290175484059e+00 9.599508063857736033e+02 4.961141796595926934e+01
1.182509924010620139e+01 1.214746680622217134e+00 8.322323743630061017e+02 5.213989781383470756e+01
1.184129122464522155e+01 1.247206827976606203e+00 7.223443989499832014e+02 5.474234746640560445e+01
1.185732694446979707e+01 1.279920802574544769e+00 6.277662181386870088e+02 5.742093088476158869e+01
1.187307347573002403e+01 1.312850019918125222e+00 5.462187852910361698e+02 6.017787533592657212e+01
1.188844015345162752e+01 1.345965469929355951e+00 4.758378118809539501e+02 6.301547324485206047e+01
1.190333028706454144e+01 1.379221545084561518e+00 4.150478431584710393e+02 6.593608410058978109e+01
1.191766225548051672e+01 1.412602953225558622e+00 3.624616896657744860e+02 6.894213641822874195e+01
1.193139413959933748e+01 1.446067894922348218e+00 3.169375225324265557e+02 7.203612975822821340e+01
1.194427417124418689e+01 1.479604586271515032e+00 2.773991800899889881e+02 7.522063680482543191e+01
1.195640820327625065e+01 1.513159396541081003e+00 2.430988539974443654e+02 7.849830550524633566e+01
1.196763908312593294e+01 1.546715415972741203e+00 2.132806068477277108e+02 8.187186127149868753e+01
1.197785843205950052e+01 1.580169799009718545e+00 1.873446409972443689e+02 8.614823069249985110e+01
1.198694974328312135e+01 1.613362505252617929e+00 1.648698300040831555e+02 9.074403622944682013e+01
1.199474844606868551e+01 1.646268470509780757e+00 1.453148845412100627e+02 9.547429047013653758e+01
1.200125126229655415e+01 1.678856491380869231e+00 1.282827013269562997e+02 1.003429266649626612e+02
1.200641375412159029e+01 1.711110919132165620e+00 1.134143778724512686e+02 1.053539931302009762e+02
1.201006170044044552e+01 1.743004831609555660e+00 1.004069078649245341e+02 1.105116566142215504e+02
1.201231671775339116e+01 1.774541705636204059e+00 8.900949220419799701e+01 1.158202057621790715e+02
1.201302290661429772e+01 1.805679992845083071e+00 7.900656221604602081e+01 1.212840546820610967e+02
1.201217232925885625e+01 1.836387672004214933e+00 7.021463990394745736e+01 1.269077466150596791e+02
1.200971659038478201e+01 1.866687485137960678e+00 6.246270703170667105e+01 1.326959577133192170e+02
1.200564648264010081e+01 1.896532984197561555e+00 5.562499930715807039e+01 1.386535009281997475e+02
1.199980425811678586e+01 1.925672862354984360e+00 4.962647969422655336e+01 1.463227762932778262e+02
1.199192676622249820e+01 1.953859473445964001e+00 4.437636657701678899e+01 1.542180458373099725e+02
1.198185817520896812e+01 1.981088460043705535e+00 3.976600343923596625e+01 1.623442887650853095e+02
1.196957147394707022e+01 2.007371781841111869e+00 3.570195341863347949e+01 1.707082621231744497e+02
1.195495553935971422e+01 2.032705989203868135e+00 3.210763730945421912e+01 1.793169206332120496e+02
1.193798937324882559e+01 2.057091337250693375e+00 2.892199273917970359e+01 1.881774224748120048e+02
1.191867479645098449e+01 2.080564067656955896e+00 2.608480687862219938e+01 1.972971352376608820e+02
1.189699524315895829e+01 2.102889909313712558e+00 2.357625577720200027e+01 2.086033457057790770e+02
1.187263016841736096e+01 2.123751154004930086e+00 2.137021796447321620e+01 2.203059630246747531e+02
1.184540288471875336e+01 2.143191344307450841e+00 1.941641520636673590e+01 2.323509363715339759e+02
1.181528354961086080e+01 2.161232415704459786e+00 1.767943776167989256e+01 2.447482812537159589e+02
1.178215737592460499e+01 2.177888727856560180e+00 1.612959379467679710e+01 2.580539440615698368e+02
1.174607755031632550e+01 2.192901970430491954e+00 1.475931084740773436e+01 2.735299644703517856e+02
1.170680285995944558e+01 2.206092825622599118e+00 1.354760887795421276e+01 2.894587305112816580e+02
1.166409372153176349e+01 2.217504726505259427e+00 1.246988384659142923e+01 3.058534871014651912e+02
1.161806580782856457e+01 2.227079749084889482e+00 1.151287593223037042e+01 3.249933978435232120e+02
1.156850321845285912e+01 2.234478218236048086e+00 1.067169512059529701e+01 3.450135448921935790e+02
1.151525228081116836e+01 2.239758674137799055e+00 9.928180373139625203e+00 3.667807594964228315e+02
1.145841723353053787e+01 2.242612007891647607e+00 9.280940580989202715e+00 3.907913404653480711e+02
1.139783594735000527e+01 2.242960379474416843e+00 8.718092888599121792e+00 4.172490397303277518e+02
