# Radius[km]  Mass[Solar Mass] Lambda Central_pressure[MeV fm-3]
1.875009411988168395e+01 1.728965500853627268e-01 1.276198547380264848e+07 2.120033028114229445e+00
1.795501135536191839e+01 1.818100690218188986e-01 9.961962745337497443e+06 2.291852654849361404e+00
1.728187557615742165e+01 1.910156219459894777e-01 7.835810704008906148e+06 2.474749150049293966e+00
1.670612465678067693e+01 2.005069090293750966e-01 6.204211951682184823e+06 2.668804599517956788e+00
1.620950420243480039e+01 2.102756159430339833e-01 4.943234498389049433e+06 2.874475260672904042e+00
1.577756331255285716e+01 2.203190938317088898e-01 3.958473360635679215e+06 3.092350824908208118e+00
1.539925337166754815e+01 2.306337513435323394e-01 3.186109210323607549e+06 3.324153693906455764e+00
1.506574183072223683e+01 2.412189300167622286e-01 2.576098634786143433e+06 3.569693910338046727e+00
1.476998563338325177e+01 2.520742403902130890e-01 2.091580931437124265e+06 3.829481207696675771e+00
1.450613411734313551e+01 2.632018984079069757e-01 1.704536521293037571e+06 4.105729056679221500e+00
1.426975836778538564e+01 2.746023347570661910e-01 1.393755038828503573e+06 4.397875782822769253e+00
1.405696412388276428e+01 2.862777494652871679e-01 1.143694725064586382e+06 4.707449546579114852e+00
1.386467393251865055e+01 2.982321917200709271e-01 9.412815671947115334e+05 5.035477457398321199e+00
1.369016211848794384e+01 3.104713452520748707e-01 7.768660970015020575e+05 5.382374486847361972e+00
1.353118659051878758e+01 3.229993887393264318e-01 6.427005587752005085e+05 5.750085049973142404e+00
1.338598231721961973e+01 3.358244056832266899e-01 5.329974703076105798e+05 6.138594426758164246e+00
1.325291520901147102e+01 3.489491821317267095e-01 4.429654091764882905e+05 6.550093352477693642e+00
1.313061835550694845e+01 3.623848325788173730e-01 3.689782232127652969e+05 6.984820745197215963e+00
1.301799784722583020e+01 3.761322920040822138e-01 3.078881636915634735e+05 7.444544897228373870e+00
1.291398595237568081e+01 3.902119930801202785e-01 2.573745498768437246e+05 7.930439856998212633e+00
1.281774516443715584e+01 4.046180278979676359e-01 2.154921802403614856e+05 8.443187002050526857e+00
1.272865564657789506e+01 4.193674836194504763e-01 1.807475305762088974e+05 8.985573292641072740e+00
1.264588638904760032e+01 4.344665957120908972e-01 1.517916519795830536e+05 9.557222177476145220e+00
1.256890300030366703e+01 4.499292536914283880e-01 1.276431333376795956e+05 1.016114473068503798e+01
1.249735343851146219e+01 4.657614290665607060e-01 1.074731925577316579e+05 1.079804531988336436e+01
1.243064017329593085e+01 4.819728458704791163e-01 9.060522743519143842e+04 1.146895510784987415e+01
1.236848713394949506e+01 4.985762893746974456e-01 7.646087098826179863e+04 1.217751340078168631e+01
1.231049146638206615e+01 5.155760470398526030e-01 6.460171866605873947e+04 1.292325463221726523e+01
1.225638321225177840e+01 5.329859662512280716e-01 5.462856655062283244e+04 1.370890093284295297e+01
1.220573235038587967e+01 5.509283845301704563e-01 4.619480325282513513e+04 1.462568944523274794e+01
1.215864286668026928e+01 5.695642920644558016e-01 3.903101082133668388e+04 1.557976646783892427e+01
1.211531670084959877e+01 5.888671185103432348e-01 3.296522850446208031e+04 1.656170081543776007e+01
1.207570800494268681e+01 6.088173626628842205e-01 2.784676111911011685e+04 1.757230587157937762e+01
1.203980889594703463e+01 6.293972470472168901e-01 2.353183480780833997e+04 1.861241876914373705e+01
1.200740420206959236e+01 6.505642845474792768e-01 1.990348852296810219e+04 1.968290108377816594e+01
1.197827157133743015e+01 6.723023143366653187e-01 1.684865415954808850e+04 2.078463954758198540e+01
1.195213904336874755e+01 6.945737674927312533e-01 1.427987912795130251e+04 2.191854678362941300e+01
1.192881201915970024e+01 7.173680942070579380e-01 1.211688366040332767e+04 2.308556206193929583e+01
1.190813184449446993e+01 7.406750788975445809e-01 1.029529443479707879e+04 2.428665207751772570e+01
1.188966341499465429e+01 7.644465896911919467e-01 8.758630218983906161e+03 2.552281175111811962e+01
1.187326364095599907e+01 7.886622555358848707e-01 7.462962830594507068e+03 2.679506505338196831e+01
1.185859543535125482e+01 8.132986014286650578e-01 6.367906148571773883e+03 2.810446585304316258e+01
1.184558843647762316e+01 8.383445182155073727e-01 5.441465548052652593e+03 2.945209878989822272e+01
1.183390729218371717e+01 8.638248157914014680e-01 4.654460951597588064e+03 3.112886155620709161e+01
1.182370465717792918e+01 8.898825265787501104e-01 3.983304163522806903e+03 3.296961558901344347e+01
1.181502673128017555e+01 9.164971626279246886e-01 3.411455461191101676e+03 3.486411631323822746e+01
1.180769536856201718e+01 9.436306569082453244e-01 2.923684415813434953e+03 3.681393303514772697e+01
1.180162098090239198e+01 9.712501986098678319e-01 2.508089899200803302e+03 3.882068088191545741e+01
1.179679932547549726e+01 9.993315926932891946e-01 2.153999170815314756e+03 4.088602213950968434e+01
1.179299631142691318e+01 1.027823780134052178e+00 1.852123013608957763e+03 4.301166762964520984e+01
1.179009589542751080e+01 1.056713272186051489e+00 1.594390248141949769e+03 4.519937812693925849e+01
1.178784119757430027e+01 1.085946978848981059e+00 1.374290474134482565e+03 4.745096581744618192e+01
1.178616762178843480e+01 1.115498720570727187e+00 1.186034341680109037e+03 4.976829579977827933e+01
1.178498183358449047e+01 1.145352485944512777e+00 1.024931525391568357e+03 5.215328763005712176e+01
1.178404808469408493e+01 1.175461751143310307e+00 8.867534198147347979e+02 5.460791691197417208e+01
1.178327815671702083e+01 1.205790798033717470e+00 7.682398124625008222e+02 5.713421693327877904e+01
1.178251514908823516e+01 1.236320907649852918e+00 6.663621303924395534e+02 5.981798025166743571e+01
1.178171413039356175e+01 1.267030105739926693e+00 5.787616732538461974e+02 6.320903430280027635e+01
1.178084032116591118e+01 1.297897952017286416e+00 5.032422821512952282e+02 6.669910100441282452e+01
1.177982236045567888e+01 1.328905315932969344e+00 4.381353397831151142e+02 7.029107134697805748e+01
1.177864737859948185e+01 1.360000741513755829e+00 3.819283217249557083e+02 7.398792073266649538e+01
1.177708512181395584e+01 1.391156332251047623e+00 3.333566171720472084e+02 7.779271144001542382e+01
1.177519927852524262e+01 1.422340574546574699e+00 2.913399765361698428e+02 8.170859516056162875e+01
1.177288500006591576e+01 1.453513980243311021e+00 2.549650540229987712e+02 8.573881560953961412e+01
1.176990930547698433e+01 1.484666985289644803e+00 2.233512097669032812e+02 8.988671121280697207e+01
1.176636624541887421e+01 1.515747151927973269e+00 1.959280254343885872e+02 9.415571787222387456e+01
1.176214968971653718e+01 1.546715886429102627e+00 1.720889250668201669e+02 9.854937181177579930e+01
1.175701208694797550e+01 1.577587200622087238e+00 1.512666454053214977e+02 1.030713125067984066e+02
1.175107121410385780e+01 1.608267983641270771e+00 1.331433614266257166e+02 1.084858253744398127e+02
1.174426921784605860e+01 1.638699290437570122e+00 1.173649357502017807e+02 1.144813276671764868e+02
1.173653238785511022e+01 1.668827137160710627e+00 1.035975007467832540e+02 1.206518877926725821e+02
1.172787629343768678e+01 1.698670703462743292e+00 9.156513262591013813e+01 1.270026171233058392e+02
1.171816857824317992e+01 1.728167521708796395e+00 8.103587398063943681e+01 1.335387762742911377e+02
1.170743209523826955e+01 1.757301184889344725e+00 7.180915938374501195e+01 1.402657794613010651e+02
1.169554680856359674e+01 1.786067778469887735e+00 6.371056196340664002e+01 1.471891989853226335e+02
1.168257219712255335e+01 1.814435130738443425e+00 5.658724493867048011e+01 1.543147698484616797e+02
1.166837997139599103e+01 1.842379119863930770e+00 5.031597704664623905e+01 1.616483945045224004e+02
1.165295299978332899e+01 1.869876731788957080e+00 4.478532263208127517e+01 1.693467778312068504e+02
1.163622208242741074e+01 1.896738201141051849e+00 3.993126458114970490e+01 1.789207244256288902e+02
1.161809076008450248e+01 1.922784396796044959e+00 3.567414563994336874e+01 1.887742129599819521e+02
1.159843013295207292e+01 1.948012304559892938e+00 3.193214758256894470e+01 1.989154055537653107e+02
1.157712456366749620e+01 1.972432738108888861e+00 2.862730430668276682e+01 2.093527026456176827e+02
1.155413744304975054e+01 1.996059236464406972e+00 2.570394435860164606e+01 2.200947499518063637e+02
1.152943172157729634e+01 2.018857315281210152e+00 2.311242840614451310e+01 2.311504456278903206e+02
1.150298337538695570e+01 2.040850751167169630e+00 2.080816797564835596e+01 2.428972267147024979e+02
1.147478095143451426e+01 2.061666094590548948e+00 1.878113269384799366e+01 2.569552857301813447e+02
1.144453536659483817e+01 2.081137008544954092e+00 1.699883195800183699e+01 2.714238146652589876e+02
1.141197726213590791e+01 2.099241008539590503e+00 1.542541725701250677e+01 2.863147984998466313e+02
1.137701905197504004e+01 2.116006182340199437e+00 1.402730398692337133e+01 3.016405721536116289e+02
1.133962602191664182e+01 2.131344506111955805e+00 1.278843957495865702e+01 3.192187052964733880e+02
1.129970336617668458e+01 2.144802565337406985e+00 1.170565898979954689e+01 3.381418460012699256e+02
1.125678846475234529e+01 2.156349531500355354e+00 1.075289940156188706e+01 3.576175082195341020e+02
1.121085365080960372e+01 2.165843800560094845e+00 9.917322402191302899e+00 3.797915856468557081e+02
1.116166868523471223e+01 2.172754703333474868e+00 9.199138931989676138e+00 4.032525292479745076e+02
1.110923115971164599e+01 2.176695920615097535e+00 8.593308596631974439e+00 4.298876461207334501e+02
1.105320987160675017e+01 2.176725101124365569e+00 8.110609584055278987e+00 4.597417403970326291e+02
