# Radius[km]  Mass[Solar Mass] Lambda Central_pressure[MeV fm-3]
1.940372586836394930e+01 1.545209803970326312e-01 1.684851570183036104e+07 2.336601613634765151e+00
1.832937969335368322e+01 1.624695764589331182e-01 1.281827960988072120e+07 2.580478019463764205e+00
1.740603914705922861e+01 1.711546486307829462e-01 9.749012108282657340e+06 2.836850802543303018e+00
1.661820406655025550e+01 1.805459410303804357e-01 7.436459176959216595e+06 3.101024002128339507e+00
1.594724916010508053e+01 1.906181172896098674e-01 5.689978524624721147e+06 3.373234954245462269e+00
1.537594161430740769e+01 2.013442979002756095e-01 4.374189994768375531e+06 3.653728216124039641e+00
1.488934991586537748e+01 2.126997784795345292e-01 3.380026297066227999e+06 3.942755785909089372e+00
1.447410807926507381e+01 2.246530342750626963e-01 2.625760619788925629e+06 4.240577329059082246e+00
1.411921999378185077e+01 2.371898846782057868e-01 2.051202884668189101e+06 4.547460411632153310e+00
1.381533714221739473e+01 2.502903127424121466e-01 1.611423979181388859e+06 4.863680740670348612e+00
1.355450358325212790e+01 2.639377426400720261e-01 1.272892247173657408e+06 5.189522411897733001e+00
1.333033794276722261e+01 2.781119875769720862e-01 1.010795516337046633e+06 5.525278164955073734e+00
1.313730685100422058e+01 2.928040763403752522e-01 8.068467468050610041e+05 5.871249646400208633e+00
1.297092415498950935e+01 3.079976532889187602e-01 6.471444921381586464e+05 6.227747680710598921e+00
1.282739192569902009e+01 3.236841132355708361e-01 5.214783537792284042e+05 6.595092549531300641e+00
1.270324773649033645e+01 3.398477918429085309e-01 4.221078436851376318e+05 6.973614279419473760e+00
1.259609932172742752e+01 3.564803498084615496e-01 3.431231682280389941e+05 7.363652938343732579e+00
1.250351290421364858e+01 3.735752594861350140e-01 2.799169001500017475e+05 7.765558941204854904e+00
1.242345161401727793e+01 3.911178529178184204e-01 2.292266847541513271e+05 8.179693364652289134e+00
1.235417732639093735e+01 4.091074892539290353e-01 1.883808605618567963e+05 8.606428271479240166e+00
1.229447464315177818e+01 4.275248450507583287e-01 1.553173264794102288e+05 9.046147044887897337e+00
1.224289083892819718e+01 4.463769962460382157e-01 1.284476072324176203e+05 9.534271522650138664e+00
1.219843796808128999e+01 4.658234773836522624e-01 1.063746492644855316e+05 1.020765620418556097e+01
1.216057130655349816e+01 4.859422583494470427e-01 8.817490430972645117e+04 1.090152933586498385e+01
1.212900294457702977e+01 5.067117013359151434e-01 7.318522524219613115e+04 1.161651430072754820e+01
1.210329343856463247e+01 5.281039145654689015e-01 6.085281318471457780e+04 1.235325344890905086e+01
1.208278416430456836e+01 5.501013272130397258e-01 5.068102424330790382e+04 1.311240867473614991e+01
1.206710455756060441e+01 5.726889481267507520e-01 4.229138886330564856e+04 1.389466201137925339e+01
1.205564784322813487e+01 5.958444892718021135e-01 3.535795749817875912e+04 1.470071624359846041e+01
1.204801459220974635e+01 6.195470515638781261e-01 2.962068496101045093e+04 1.553129553913291439e+01
1.204375109728662707e+01 6.437824803057894396e-01 2.486194196368681150e+04 1.638714609930082489e+01
1.204240357834131281e+01 6.685306154485270991e-01 2.090940000651262380e+04 1.726903682939465412e+01
1.204360758346355453e+01 6.937834331165322332e-01 1.761874183219351107e+04 1.817776002947396563e+01
1.204697388164773209e+01 7.195070891680300784e-01 1.487369324674665950e+04 1.911413210617615377e+01
1.205223209037503018e+01 7.457003465490695815e-01 1.258094835664178208e+04 2.007899430618495273e+01
1.205908218483790684e+01 7.723294090346193297e-01 1.066033400192211229e+04 2.107321347201548178e+01
1.206719417800242411e+01 7.993896844620698161e-01 9.048946215915102584e+03 2.209768282079473067e+01
1.207634509539911427e+01 8.268607972373576143e-01 7.694501397444840222e+03 2.315332274673745871e+01
1.208628070097416263e+01 8.547188499173242748e-01 6.553070024228161856e+03 2.424108164803817900e+01
1.209675470086849813e+01 8.829576588699381556e-01 5.590014902366822753e+03 2.554389779235308211e+01
1.210778013421133181e+01 9.116032009118332224e-01 4.774732756538984177e+03 2.710102964954338134e+01
1.211919016909834745e+01 9.406361901848874219e-01 4.084075648931172054e+03 2.870553891120763268e+01
1.213088102649374989e+01 9.700279325243763573e-01 3.498279359582527832e+03 3.035886708561907454e+01
1.214280744167474602e+01 9.997558625250856368e-01 3.001107872112758287e+03 3.206249954048406181e+01
1.215458022336760635e+01 1.029793859318693938e+00 2.577711537837375090e+03 3.381796683741227838e+01
1.216625492096740579e+01 1.060120627059786491e+00 2.217355187956509326e+03 3.562684610698963894e+01
1.217768077346626932e+01 1.090699732096533037e+00 1.910103787532967999e+03 3.749076246568924375e+01
1.218867988162656424e+01 1.121507489851832906e+00 1.647600318838823114e+03 3.941139047589346944e+01
1.219921949969194230e+01 1.152513710112733625e+00 1.423299343964314403e+03 4.139045565033862317e+01
1.220899732908747737e+01 1.183713967079168317e+00 1.230874110454809852e+03 4.342973600233411702e+01
1.221806129724352985e+01 1.215067468135095918e+00 1.065944665382321091e+03 4.553106364314853494e+01
1.222627582988490680e+01 1.246547233874343741e+00 9.240578958207300957e+02 4.769632642799808764e+01
1.223350178326481164e+01 1.278129842264113414e+00 8.021238629742884996e+02 5.000677016941541808e+01
1.223973498861541565e+01 1.309758195683324189e+00 6.970875587090851013e+02 5.298568410389539451e+01
1.224485152614727923e+01 1.341378987242441312e+00 6.066997577882782480e+02 5.605523468530747522e+01
1.224884820984533107e+01 1.372950069797010064e+00 5.288370745148711194e+02 5.921817963070821378e+01
1.225159334171879699e+01 1.404476053938301439e+00 4.614484775562758614e+02 6.247736056364918511e+01
1.225309719983669865e+01 1.435911678779923095e+00 4.032091717786035474e+02 6.583570556712196264e+01
1.225324772798605899e+01 1.467240850731988289e+00 3.527254061170144155e+02 6.929623181417910871e+01
1.225203103314285080e+01 1.498425855211320323e+00 3.089660569851384935e+02 7.286204827859482691e+01
1.224931696782423707e+01 1.529452850827657251e+00 2.709018360943944117e+02 7.653635852800015016e+01
1.224512057267390297e+01 1.560305348540768744e+00 2.377924498494214731e+02 8.032246360200232971e+01
1.223933067167355482e+01 1.590935430213689106e+00 2.089459477271783499e+02 8.422376497787426786e+01
1.223198270182101588e+01 1.621299760656603972e+00 1.837955628188601338e+02 8.903885820929230022e+01
1.222295399218788248e+01 1.651287317701751967e+00 1.619074042858480595e+02 9.426677745277414999e+01
1.221229549851413765e+01 1.680874968742301911e+00 1.428248875408620506e+02 9.965376173844354923e+01
1.219994169126768035e+01 1.710030525083917397e+00 1.261551080409135892e+02 1.052046507905708523e+02
1.218583290704991384e+01 1.738763036720482047e+00 1.115550642162740616e+02 1.109244315872207665e+02
1.216996426358214656e+01 1.767019856702210845e+00 9.876859829434184235e+01 1.168182428406067146e+02
1.215232909007692896e+01 1.794825240805155264e+00 8.753799532162373964e+01 1.228913796137650820e+02
1.213284104940832719e+01 1.822138991138979369e+00 7.766110971034707688e+01 1.291492980776960451e+02
1.211151099959342226e+01 1.848946497586114068e+00 6.896348600875151647e+01 1.361973066068319724e+02
1.208841469708610106e+01 1.875097252283756344e+00 6.133153516292681928e+01 1.444272747406233179e+02
1.206349862122076466e+01 1.900571107779323698e+00 5.461876201363662631e+01 1.529076484693433997e+02
1.203673029132400352e+01 1.925361185298909428e+00 4.869952317901743299e+01 1.616460466514071754e+02
1.200812372730292665e+01 1.949451455893097984e+00 4.348140951291689760e+01 1.706503199571571940e+02
1.197761139457607804e+01 1.972857031600769862e+00 3.886066447297994131e+01 1.799285579219888405e+02
1.194520603080159127e+01 1.995545041245691209e+00 3.476590899611208130e+01 1.894890962140763122e+02
1.191091212996844817e+01 2.017501483545076635e+00 3.113771381499514490e+01 2.002537483271243843e+02
1.187482058606151192e+01 2.038514889680905995e+00 2.793663420011824172e+01 2.126141296733641184e+02
1.183681450029238391e+01 2.058515394355016959e+00 2.511163662965418197e+01 2.253505888602756499e+02
1.179680048581925789e+01 2.077532138992259192e+00 2.260747686702082859e+01 2.384745684589476866e+02
1.175471072601722611e+01 2.095547090676718405e+00 2.038264834087372535e+01 2.519978591929504432e+02
1.171052888897559008e+01 2.112583619907804966e+00 1.840143583677820160e+01 2.659326105312460982e+02
1.166453010878814922e+01 2.128237900765447499e+00 1.666133477501834648e+01 2.828196372604241446e+02
1.161618053509059223e+01 2.141845668655897761e+00 1.515678732272557028e+01 3.003238516296154330e+02
1.156481857062565766e+01 2.153393831405971515e+00 1.384416522911108771e+01 3.185805160679748269e+02
1.151099708056307058e+01 2.161888937861762727e+00 1.274842694104088459e+01 3.397721940153875266e+02
1.145296677475944414e+01 2.166620608927338321e+00 1.184428472279204669e+01 3.636633163654360601e+02
1.138961998144077548e+01 2.168438690888970122e+00 1.105886732113953741e+01 3.889198298213585190e+02
