# Radius[km]  Mass[Solar Mass] Lambda Central_pressure[MeV fm-3]
1.905143147603795484e+01 1.625751336842503614e-01 1.478301074363878928e+07 2.236258303961588645e+00
1.809363095410228084e+01 1.712094419843863957e-01 1.130826534892674536e+07 2.433304127943776596e+00
1.728807505772579489e+01 1.802683895711676698e-01 8.710989398818666115e+06 2.642555816621989795e+00
1.660429089400663472e+01 1.897544136874151077e-01 6.750924862012385391e+06 2.864554226565659611e+00
1.601928331291956198e+01 1.996735390122994502e-01 5.260482154663802125e+06 3.099862240262153179e+00
1.551524139888403298e+01 2.100331720112075806e-01 4.119234138265122660e+06 3.349066328750724519e+00
1.507835495529457859e+01 2.208461064001141505e-01 3.240129612452087458e+06 3.612778179165137438e+00
1.469800573096377505e+01 2.321093622680549529e-01 2.558989304090319667e+06 3.891860250977261515e+00
1.436534690749707899e+01 2.438348403281304366e-01 2.028948351267794380e+06 4.186823072110544608e+00
1.407333361068566724e+01 2.560332232839825362e-01 1.614424366548518417e+06 4.498342391660559159e+00
1.381636246306578997e+01 2.687062676307335751e-01 1.289469537786535220e+06 4.827150493977425683e+00
1.358946215451845774e+01 2.818743162451894380e-01 1.032826410509663983e+06 5.174014049529468195e+00
1.338892548123394555e+01 2.955364859790211018e-01 8.299616960007306188e+05 5.539736254284908235e+00
1.321139881157819929e+01 3.097014938761188385e-01 6.688224725096907932e+05 5.925204766688160873e+00
1.305417280697202109e+01 3.243774303443775486e-01 5.404902569019610528e+05 6.331682288255040980e+00
1.291478351377261724e+01 3.395732520512391717e-01 4.380487631580658490e+05 6.759719875458478633e+00
1.279122765579244714e+01 3.552962493133064448e-01 3.558953190431245603e+05 7.210291250402215191e+00
1.268179329334275707e+01 3.715540781403710024e-01 2.898871628498088685e+05 7.695584404418124080e+00
1.258454362595547771e+01 3.884801499822428950e-01 2.363686810650730622e+05 8.266775095087556480e+00
1.249868707758412611e+01 4.061396666371576702e-01 1.929011844859691337e+05 8.855512352354674377e+00
1.242356676688867978e+01 4.244972794185699061e-01 1.576475122672931757e+05 9.462335194106868741e+00
1.235853461611754511e+01 4.435406119528053082e-01 1.290790565235223330e+05 1.008779919647274781e+01
1.230254222860951074e+01 4.632470511120875267e-01 1.059013494341977348e+05 1.073247700247941516e+01
1.225488277503983703e+01 4.835918487197057858e-01 8.709424585135198140e+04 1.139695884633533929e+01
1.221479211985704794e+01 5.045648529119318715e-01 7.179524114536731213e+04 1.208185309381868677e+01
1.218131230422835110e+01 5.261385694570127614e-01 5.932723682594953425e+04 1.278778679926618622e+01
1.215384260613388889e+01 5.482930468408305780e-01 4.914671314199949120e+04 1.351540627967209396e+01
1.213183866056637328e+01 5.710259626869510496e-01 4.081351237610142562e+04 1.426537770642319636e+01
1.211453390089419813e+01 5.943069958669321418e-01 3.397870200688397745e+04 1.503838771521147599e+01
1.210137423916158284e+01 6.181225479054380800e-01 2.835513564397741357e+04 1.583514403468279674e+01
1.209187486821194213e+01 6.424608241537456133e-01 2.371765599457947246e+04 1.665637613439724163e+01
1.208555400132379276e+01 6.672924334120809986e-01 1.988572590869731721e+04 1.750283589269433904e+01
1.208204359844313558e+01 6.926149178418169461e-01 1.670925956276619036e+04 1.837529828507468466e+01
1.208073053442638845e+01 7.184020985469719012e-01 1.406921615058017596e+04 1.927456209372802221e+01
1.208147925823816138e+01 7.446395283293240075e-01 1.187111165564044859e+04 2.020145063885761871e+01
1.208390472109912750e+01 7.713133521432334883e-01 1.003580792557372479e+04 2.121653284265134687e+01
1.208794157699479044e+01 7.985227085823827231e-01 8.496403592250193469e+03 2.255204688236406696e+01
1.209333922711803488e+01 8.263169420048951386e-01 7.199192984511704708e+03 2.392858695142700753e+01
1.210031871616881460e+01 8.546549794287940927e-01 6.108882384031129732e+03 2.534741333991141943e+01
1.210849309895975878e+01 8.835128506363104650e-01 5.190611183549726775e+03 2.680982505309173902e+01
1.211778183194112835e+01 9.128552831051489624e-01 4.417219611792297655e+03 2.831716100074883613e+01
1.212775251736646531e+01 9.426634651764432826e-01 3.763641822701207275e+03 2.987080122300758589e+01
1.213853628566597287e+01 9.728943042659714546e-01 3.212280327127121836e+03 3.147216815383151101e+01
1.214988213134920159e+01 1.003517860252032712e+00 2.745991780752210616e+03 3.312272792333094174e+01
1.216145884638678076e+01 1.034528445883183601e+00 2.350561425584750850e+03 3.482399170007717260e+01
1.217328411657152287e+01 1.065869845818155026e+00 2.015376852424923527e+03 3.657751707465151725e+01
1.218492960488549492e+01 1.097539963719074585e+00 1.730191734850162902e+03 3.838490948569606331e+01
1.219650896458733413e+01 1.129479192002758037e+00 1.487656645133062284e+03 4.024782368977157176e+01
1.220779788300660940e+01 1.161693505593803577e+00 1.280878608553771073e+03 4.216796527636848424e+01
1.221873805568153415e+01 1.194116306214318746e+00 1.104477024182587456e+03 4.414709222945789691e+01
1.222891447395822340e+01 1.226770592675539895e+00 9.534347743783497435e+02 4.643918799948897203e+01
1.223846919202675032e+01 1.259575628237005196e+00 8.241996965850346442e+02 4.918688598852585869e+01
1.224754651571956110e+01 1.292521176612662526e+00 7.135498312469745770e+02 5.201899128066231270e+01
1.225577580836907643e+01 1.325562030185847728e+00 6.185994622953669477e+02 5.493809680745231105e+01
1.226314616464227569e+01 1.358693385422759858e+00 5.369458236249704441e+02 5.794687515343952100e+01
1.226961307857729544e+01 1.391868044544790628e+00 4.666829593970368819e+02 6.104808100303977625e+01
1.227524256159655458e+01 1.425016324229754883e+00 4.062756294477949837e+02 6.424455366258996492e+01
1.227958608034023946e+01 1.458182961523578847e+00 3.540006020726370366e+02 6.753921965987260023e+01
1.228287914467072461e+01 1.491275098122351483e+00 3.088934136647364426e+02 7.093509542349565322e+01
1.228493647672754641e+01 1.524286496994795126e+00 2.698560077886325530e+02 7.443529004458133613e+01
1.228569635560265461e+01 1.557182223627214368e+00 2.360205379260507925e+02 7.804300812329165637e+01
1.228503225625073725e+01 1.589950541244809834e+00 2.066474091671383917e+02 8.176155270279737408e+01
1.228293835948233159e+01 1.622464434980537940e+00 1.811682746429326016e+02 8.645574599950798245e+01
1.227930405170962125e+01 1.654564722008003086e+00 1.591229516326167754e+02 9.148249640374399405e+01
1.227398264894044111e+01 1.686248257857464683e+00 1.399765422055426995e+02 9.666366495970891037e+01
1.226698153667982716e+01 1.717454718294537663e+00 1.233429030117480067e+02 1.020039952817988507e+02
1.225817927878159175e+01 1.748219281457331409e+00 1.088265412593720640e+02 1.075083767048275121e+02
1.224756533004059378e+01 1.778487225889787471e+00 9.615166741780069515e+01 1.131818487604523540e+02
1.223512240977060905e+01 1.808245078723345722e+00 8.506427167983113691e+01 1.190296057911132976e+02
1.222075801741494949e+01 1.837482014025483945e+00 7.533908057691925819e+01 1.250570017057087568e+02
1.220447368717372250e+01 1.866191864563227609e+00 6.680017460898076820e+01 1.313986839529758868e+02
1.218621465365507106e+01 1.894146835215751778e+00 5.933194001370008408e+01 1.393432572862573124e+02
1.216582009069341375e+01 1.921147063984079528e+00 5.281375588206020666e+01 1.475318821899859643e+02
1.214316821741995689e+01 1.947225758284608865e+00 4.709716397086398842e+01 1.559720557526194966e+02
1.211821361042515477e+01 1.972352669532196900e+00 4.207532853459849775e+01 1.646715053677729088e+02
1.209089769821650684e+01 1.996550802280139258e+00 3.764898323618719900e+01 1.736381958090271382e+02
1.206114192955734232e+01 2.019869730514608275e+00 3.372401385354328340e+01 1.828803365220707065e+02
1.202905434841844112e+01 2.042149280213798601e+00 3.026609679499883754e+01 1.937856394296143776e+02
1.199458247695798185e+01 2.063210932736146308e+00 2.721948316252318989e+01 2.056761740802840563e+02
1.195753526394903687e+01 2.083009657851734087e+00 2.453348186974936951e+01 2.179319773908574120e+02
1.191784742137475028e+01 2.101550856923265265e+00 2.215436230690643526e+01 2.305642701514693158e+02
1.187544888481931871e+01 2.118877832817548157e+00 2.003924159950565809e+01 2.435846178468453331e+02
1.183045284370090044e+01 2.134951214058475877e+00 1.815964341816902561e+01 2.590619217821978282e+02
1.178287768961545368e+01 2.149581182256348200e+00 1.649516366432446901e+01 2.754805909039953917e+02
1.173256124413816615e+01 2.162752903712728880e+00 1.501747706379461356e+01 2.924036297151058079e+02
1.167942188274542659e+01 2.174556772292910889e+00 1.369561512657259428e+01 3.098465320890946941e+02
1.162362330406312161e+01 2.184967771909009038e+00 1.251502601392740743e+01 3.306047157948626136e+02
1.156517744961908001e+01 2.193791874891584559e+00 1.146553032127891925e+01 3.522522923785433022e+02
1.150400690987668639e+01 2.201158906840618101e+00 1.052641996350327602e+01 3.745648669224655123e+02
1.144008639148135842e+01 2.207035766042482194e+00 9.684167359733436342e+00 3.999711329702463445e+02
1.137366814314310837e+01 2.211353830186036262e+00 8.932044771568047992e+00 4.273037848189903798e+02
1.130454205900790043e+01 2.214116877478734757e+00 8.256568393410134377e+00 4.554760760452493287e+02
1.123290772532184256e+01 2.215392720266773807e+00 7.650008961855045087e+00 4.882873526433163534e+02
