# Radius[km]  Mass[Solar Mass] Lambda Central_pressure[MeV fm-3]
1.939891458713071515e+01 1.543547928012806159e-01 1.687138008077063411e+07 2.340214969847909998e+00
1.839952940837949313e+01 1.616108892578900780e-01 1.310470196531667188e+07 2.543121700284070030e+00
1.755255148106715879e+01 1.691625118725140486e-01 1.025893562244409882e+07 2.759109814994503029e+00
1.682825714129655026e+01 1.769987378421212509e-01 8.082607238849857822e+06 2.989145001678495284e+00
1.620409785210251741e+01 1.851053214353815812e-01 6.406560036757661961e+06 3.233707799335046484e+00
1.566182409733304404e+01 1.934737868597244392e-01 5.106130900255129673e+06 3.493957125045684897e+00
1.518794833862077098e+01 2.020870137809425426e-01 4.091415516529654153e+06 3.770765173997170816e+00
1.477076441555814945e+01 2.109399239036602869e-01 3.293960874148279894e+06 4.065292390854085447e+00
1.440169093010815438e+01 2.200148895698447182e-01 2.663716601187870838e+06 4.378461876727967272e+00
1.407315054498663365e+01 2.293005381793442599e-01 2.164426835708479863e+06 4.711769956828474548e+00
1.377922442312558537e+01 2.387860537429526697e-01 1.765617193492774852e+06 5.066508411794994338e+00
1.351455656576853848e+01 2.484720858351232298e-01 1.446192785405484494e+06 5.458833477464629880e+00
1.326926174874216713e+01 2.587102893038150664e-01 1.181638275066167116e+06 5.908521181585771664e+00
1.304239909829671085e+01 2.696277827179451858e-01 9.626581096773274476e+05 6.371273684352167344e+00
1.283465571197492849e+01 2.812117167721850386e-01 7.830464316744006937e+05 6.847470557991543139e+00
1.264604252546966556e+01 2.934353731668666310e-01 6.368528001644600881e+05 7.337502402461969275e+00
1.247576619672432585e+01 3.062801730836642311e-01 5.182505840845383354e+05 7.841771165840979663e+00
1.232270477334204628e+01 3.197347525163475868e-01 4.223029931660154834e+05 8.360690474023112273e+00
1.218586690342659296e+01 3.337673318527401567e-01 3.447854436379790423e+05 8.894685969996004360e+00
1.206367199300290594e+01 3.483630616097986854e-01 2.820555548201201600e+05 9.444195662973665861e+00
1.195495027130754728e+01 3.635047106095720126e-01 2.313194039612857450e+05 1.000967028767297862e+01
1.185843104196369424e+01 3.791788593806702523e-01 1.901817905263895518e+05 1.059157367402841743e+01
1.177299525536431979e+01 3.953608671357494719e-01 1.567982280641458347e+05 1.119038312764797993e+01
1.169744656019932982e+01 4.120453327697940482e-01 1.296116941749517282e+05 1.180658982132260526e+01
1.163077371467414700e+01 4.292098266998938816e-01 1.074204232880682976e+05 1.244069919791012957e+01
1.157205476832098157e+01 4.468444327374080371e-01 8.926009717420046218e+04 1.309323138492422522e+01
1.152047281134126600e+01 4.649304995745734415e-01 7.437634420341998339e+04 1.376472162116838760e+01
1.147520178743872421e+01 4.834655866939019386e-01 6.211716275268728350e+04 1.445572069576497221e+01
1.143545322820134835e+01 5.024497046255498311e-01 5.199345763916285068e+04 1.526707237725059052e+01
1.140081247080463278e+01 5.221245048621410145e-01 4.353008957139909762e+04 1.624103662489778799e+01
1.137122920581725971e+01 5.425060024804311265e-01 3.646539894721325982e+04 1.724329750299890662e+01
1.134647143273375391e+01 5.635702049373196854e-01 3.057205474961251457e+04 1.827467711492883495e+01
1.132636995521239243e+01 5.853041873865477696e-01 2.565725251461232619e+04 1.933602144867169059e+01
1.131054990771003865e+01 6.076653043569834045e-01 2.156263844697852983e+04 2.042820107074139457e+01
1.129867280897074089e+01 6.306592900604829355e-01 1.814715846932605564e+04 2.155211184026304494e+01
1.129043557197670999e+01 6.542362390501879066e-01 1.529714458154522254e+04 2.270867564380018067e+01
1.128546669247408296e+01 6.783828533051030618e-01 1.291722085959427750e+04 2.389884115153140698e+01
1.128350279971719772e+01 7.030885630924981200e-01 1.092484913291097837e+04 2.512358459539591138e+01
1.128416642096758160e+01 7.283184153201016642e-01 9.256387361069128019e+03 2.638391056984673710e+01
1.128712653951814637e+01 7.540495784756250375e-01 7.856393971319638695e+03 2.768085285586817079e+01
1.129217984934038377e+01 7.802708630461546724e-01 6.679420803081257873e+03 2.901547526893351758e+01
1.129906505982790677e+01 8.069580969425267369e-01 5.689041302886650556e+03 3.038887253159858304e+01
1.130743290214488184e+01 8.340876536068572156e-01 4.853331577617039329e+03 3.180217117144654182e+01
1.131715411118404546e+01 8.616402686414996737e-01 4.147558840306904131e+03 3.325653044512103662e+01
1.132792959718042347e+01 8.895953935141561741e-01 3.549779985583189955e+03 3.475314328920511286e+01
1.133959915292433784e+01 9.179297420807379648e-01 3.043185992919311502e+03 3.629323729872612603e+01
1.135196162999649871e+01 9.466354523897169138e-01 2.612668089674007206e+03 3.815439058038771236e+01
1.136500485991363263e+01 9.757506599223704224e-01 2.245876688832121545e+03 4.026737147638385750e+01
1.137871426354357141e+01 1.005251649238901201e+00 1.933286190693751223e+03 4.244174090867852556e+01
1.139281941765618811e+01 1.035114279177413943e+00 1.666266612386668157e+03 4.467928240138972029e+01
1.140727345080739674e+01 1.065309651377280620e+00 1.437881490325398090e+03 4.698183129544801062e+01
1.142200686692187439e+01 1.095801896319002822e+00 1.242722367610274659e+03 4.935127625403290352e+01
1.143682274490115169e+01 1.126561891959796613e+00 1.075502543223673911e+03 5.178956081174671056e+01
1.145166862958280873e+01 1.157572663606053709e+00 9.320768523283343256e+02 5.429868496879669948e+01
1.146634560783779300e+01 1.188794916009311198e+00 8.088644745444664750e+02 5.688070683149298645e+01
1.148079111804138108e+01 1.220204615047363550e+00 7.029367031876072360e+02 5.953774430040800070e+01
1.149488107244108903e+01 1.251775757339795625e+00 6.115846863577251042e+02 6.227197680758204257e+01
1.150851082074994736e+01 1.283473052935209857e+00 5.328325495878002585e+02 6.508564710420003507e+01
1.152160799849197659e+01 1.315283611421103949e+00 4.647778704490032737e+02 6.798106310020573062e+01
1.153402841033397408e+01 1.347169846934388904e+00 4.059221015558256340e+02 7.096059975736218917e+01
1.154573261723661481e+01 1.379105354128397298e+00 3.549141402973033337e+02 7.418724543359215318e+01
1.155664706082293236e+01 1.411033223970047157e+00 3.107330337333829675e+02 7.820254751367876622e+01
1.156673809414103182e+01 1.442909743595930383e+00 2.724310731951859452e+02 8.233450635955061614e+01
1.157596591798502494e+01 1.474709767704418750e+00 2.391734066517004749e+02 8.658651120587353489e+01
1.158422697049824635e+01 1.506405475076368017e+00 2.102358044666325156e+02 9.096204975491218647e+01
1.159150087268547225e+01 1.537969946458353387e+00 1.850396151713331960e+02 9.546471103731400376e+01
1.159773159043167823e+01 1.569375935388454435e+00 1.630712295578826172e+02 1.000981883560077677e+02
1.160287827161976182e+01 1.600600339446730747e+00 1.438753763460539119e+02 1.048662823156309400e+02
1.160685395094962935e+01 1.631621863033721809e+00 1.270882715544499604e+02 1.097729039399715987e+02
1.160963672634196975e+01 1.662404197179837118e+00 1.123888421415699099e+02 1.148220778799814781e+02
1.161118856279405875e+01 1.692939721030442213e+00 9.949059467990920780e+01 1.200179457149911855e+02
1.161142560059054318e+01 1.723192917857464757e+00 8.816097723962789701e+01 1.253647693498361519e+02
1.161033026577843863e+01 1.753093709547721923e+00 7.821739310245118304e+01 1.318621981321720682e+02
1.160775372499341707e+01 1.782460132442514000e+00 6.951024602020699206e+01 1.389522828181437717e+02
1.160371185970852892e+01 1.811253286478200275e+00 6.187992044587546303e+01 1.462483560778547371e+02
1.159806000853322772e+01 1.839492657741775394e+00 5.516320258481523808e+01 1.537564025073133394e+02
1.159076091345436943e+01 1.867162111855539930e+00 4.923971505652916392e+01 1.614825805732856168e+02
1.158185483927857540e+01 1.894232617390795737e+00 4.401250661238537987e+01 1.694332276647708397e+02
1.157128243771662390e+01 1.920700398462356739e+00 3.939088495492035236e+01 1.776148652912379191e+02
1.155900653694992108e+01 1.946557770547762800e+00 3.529093631401165965e+01 1.860342044318859109e+02
1.154502688241732145e+01 1.971806226114052984e+00 3.165251232581815799e+01 1.948105090464462421e+02
1.152930808400428297e+01 1.996219069444451044e+00 2.843729518182800575e+01 2.057312400675498054e+02
1.151160724310009087e+01 2.019591152028042735e+00 2.560690061584800503e+01 2.169692516158773969e+02
1.149184806983193674e+01 2.041948432206021735e+00 2.310036398033681948e+01 2.285337616579512030e+02
1.146995325402157562e+01 2.063280875145800497e+00 2.087965756521904837e+01 2.404342559703220275e+02
1.144585372461691186e+01 2.083611324505062257e+00 1.889892130217122812e+01 2.526804959202656278e+02
1.141956797842848381e+01 2.102956029548447514e+00 1.713210497594206672e+01 2.653509980842742948e+02
1.139106200175822181e+01 2.121087398271275237e+00 1.556416990356065355e+01 2.808182660276844445e+02
1.136019599671673674e+01 2.137804488043645090e+00 1.417748959318574897e+01 2.967349052557009372e+02
1.132671859835976313e+01 2.153077768352372967e+00 1.294652500951694662e+01 3.131139713740180355e+02
1.129055487177338968e+01 2.167008028802050568e+00 1.184575196633598537e+01 3.299688992934736120e+02
1.125178609551825915e+01 2.179449657115859917e+00 1.086594008070819228e+01 3.497377272992586086e+02
1.121018878330709079e+01 2.190111462463505188e+00 1.000083108167958557e+01 3.705164120350644339e+02
1.116561723548653795e+01 2.199057795040129992e+00 9.231682475978919555e+00 3.918987809047671362e+02
1.111803959598535485e+01 2.206184614354713691e+00 8.549475433257354595e+00 4.165093426148844173e+02
1.106732769145398443e+01 2.211216535880087708e+00 7.950254549991850439e+00 4.423517962485130965e+02
1.101336244516063800e+01 2.214177961619220092e+00 7.421561041352922494e+00 4.709851508537483369e+02
1.095615198337801743e+01 2.214720620282500274e+00 6.964450162400009248e+00 5.017055689322357921e+02
