# Radius[km]  Mass[Solar Mass] Lambda Central_pressure[MeV fm-3]
1.911544117748163174e+01 1.629340945768898430e-01 1.489033741403077915e+07 2.226349011797250643e+00
1.820639405218700091e+01 1.709475606866970865e-01 1.157355859995212592e+07 2.417565395371766623e+00
1.743283816680748188e+01 1.793092973882889907e-01 9.055484082666570321e+06 2.620673040129647191e+00
1.676791606623952902e+01 1.880353051592709712e-01 7.118235385442252271e+06 2.836147741914446740e+00
1.619227757663697176e+01 1.971333921882658102e-01 5.621991869676430710e+06 3.064511167063735719e+00
1.568726715847226849e+01 2.066957338368585195e-01 4.450679024330357090e+06 3.336996179456754863e+00
1.523723293061955886e+01 2.169366541089019773e-01 3.518581588697527070e+06 3.631877339805609672e+00
1.483866839816857208e+01 2.278569468413848276e-01 2.781618186306694523e+06 3.935476180141406211e+00
1.448773775215043536e+01 2.394267572031384683e-01 2.202511494234670885e+06 4.248050424437639805e+00
1.417990677569379976e+01 2.516270353470602683e-01 1.748065632603556383e+06 4.569865415856245505e+00
1.391033836349721220e+01 2.644359845276387233e-01 1.391249034369891277e+06 4.901194341996450987e+00
1.367478664371891917e+01 2.778344310363931591e-01 1.111123923039685003e+06 5.242318466802752042e+00
1.346916942097817405e+01 2.918157126450422467e-01 8.904976617072786903e+05 5.593527369328899823e+00
1.328973519115739776e+01 3.063444106866631822e-01 7.164685541836055927e+05 5.955119189560492465e+00
1.313339140907865854e+01 3.214194892012834925e-01 5.786479467446071794e+05 6.327400881504960495e+00
1.299739285050328164e+01 3.370235003177748934e-01 4.691141708500536624e+05 6.710688473763751105e+00
1.287894633328908434e+01 3.531411633942202477e-01 3.817153959921470960e+05 7.105307337807843737e+00
1.277615847375511926e+01 3.697604746497653028e-01 3.117706385007202625e+05 7.511592464184444040e+00
1.268694080335016672e+01 3.868749996347986553e-01 2.555261102343041275e+05 7.929888746889302453e+00
1.260965848129170830e+01 4.044702691819513363e-01 2.101462101840419928e+05 8.360551276145939070e+00
1.254287881287161355e+01 4.225324390777639993e-01 1.733858558370119426e+05 8.803945639840510040e+00
1.248522569302736684e+01 4.410578291121419747e-01 1.435101861278214783e+05 9.260448233868027401e+00
1.243568340274497963e+01 4.600318845346219598e-01 1.191307829847618705e+05 9.730446581653552585e+00
1.239314710184090096e+01 4.794503062463347787e-01 9.916755227982261567e+04 1.021433966311938235e+01
1.235682136371399586e+01 4.993006353603635095e-01 8.277439096120707109e+04 1.071253825337770493e+01
1.232591720322471751e+01 5.195733365857665431e-01 6.927017898508944199e+04 1.122546527143617112e+01
1.229969816770996083e+01 5.402907505810593536e-01 5.808882503823757725e+04 1.186740080383495943e+01
1.227784632286905442e+01 5.616443062880664971e-01 4.875094569482759835e+04 1.264477588701513078e+01
1.226022886337151618e+01 5.836467538810784506e-01 4.095180296470643952e+04 1.344513279513446058e+01
1.224663575475261368e+01 6.062699409003761142e-01 3.443461001716229657e+04 1.426915094831965547e+01
1.223675206113214031e+01 6.294950079046449654e-01 2.899560847843520969e+04 1.511752985264404536e+01
1.223028463834626933e+01 6.533013826390178247e-01 2.444947702758897503e+04 1.599098969393581626e+01
1.222694648651975591e+01 6.776615058179189521e-01 2.065008561695741810e+04 1.689027194914109842e+01
1.222614523652611318e+01 7.025668553965004337e-01 1.746861653534474317e+04 1.781614001576119222e+01
1.222794772365874039e+01 7.279923617595606133e-01 1.480259072070771072e+04 1.876937985989794910e+01
1.223177069400591677e+01 7.539135853578949886e-01 1.256220422385307029e+04 1.975080068345758022e+01
1.223749631114539760e+01 7.803087106738832990e-01 1.067950304837637304e+04 2.076123561107931437e+01
1.224483028015054309e+01 8.071754131829345091e-01 9.093811436372332537e+03 2.180154239737190380e+01
1.225345913296431632e+01 8.344724538833520056e-01 7.755860326396391429e+03 2.287260415505842204e+01
1.226313526049384528e+01 8.621938652845484441e-01 6.625509743150574650e+03 2.397533010464760039e+01
1.227376073283690872e+01 8.903208897244276887e-01 5.668805977653575610e+03 2.511065634626779897e+01
1.228505220867813286e+01 9.188174244206525065e-01 4.857482279172247218e+03 2.627954665431906633e+01
1.229663125525294909e+01 9.476912484253899871e-01 4.168452791159374101e+03 2.748299329561784177e+01
1.230858162104452624e+01 9.769011235547749861e-01 3.581767625375621265e+03 2.872201787172871335e+01
1.232071929819080758e+01 1.006436533763421348e+00 3.082506304068196641e+03 3.016499570790895390e+01
1.233295203474631663e+01 1.036302237127078474e+00 2.656007906793409347e+03 3.193407510368555435e+01
1.234499030373819117e+01 1.066497233431519032e+00 2.290940801649559035e+03 3.375545444302461107e+01
1.235711951510329776e+01 1.096974945458976336e+00 1.979110168307751792e+03 3.563067988835565103e+01
1.236900692547568070e+01 1.127731568955047781e+00 1.711609097361830209e+03 3.756134331187568165e+01
1.238063071981457774e+01 1.158720431049769184e+00 1.482312918899609031e+03 3.954908364688385092e+01
1.239182914048711837e+01 1.189915165828739907e+00 1.285322256961804214e+03 4.159558827906594303e+01
1.240251519608530373e+01 1.221295599518187780e+00 1.115957236069818237e+03 4.370259447891025673e+01
1.241260994552135521e+01 1.252832143320063762e+00 9.701333990581417765e+02 4.587189087647020358e+01
1.242197760660338268e+01 1.284497660623442838e+00 8.445158915984318355e+02 4.810531897972602877e+01
1.243050308766604317e+01 1.316270423126377320e+00 7.358099540477791152e+02 5.040477473783440843e+01
1.243818658056231818e+01 1.348123711969802851e+00 6.419568248230175413e+02 5.277221015059280518e+01
1.244485127982840744e+01 1.380032427743602241e+00 5.606456115514313296e+02 5.520963492548532514e+01
1.245044527767554321e+01 1.411965436325168577e+00 4.901699091658709335e+02 5.771911818371610536e+01
1.245489380848801098e+01 1.443890512469749643e+00 4.290161290410732136e+02 6.082248095955852563e+01
1.245816418508927370e+01 1.475710373095899808e+00 3.760048661965695374e+02 6.427951205169861737e+01
1.246019987124949857e+01 1.507404097031373791e+00 3.299642645664755491e+02 6.783874462300590835e+01
1.246096829142984497e+01 1.538943144402656671e+00 2.899531757217991981e+02 7.150320009332462234e+01
1.246040301746016077e+01 1.570311671108196583e+00 2.550788375589550299e+02 7.527598920584291875e+01
1.245846491048108184e+01 1.601477284051098904e+00 2.246746761562746713e+02 7.916031466779178061e+01
1.245509585909479711e+01 1.632424072769305345e+00 1.981169851738333705e+02 8.315947386921162376e+01
1.245024907397114156e+01 1.663120098707916883e+00 1.748843427183477104e+02 8.727686168209504558e+01
1.244390035631514202e+01 1.693554333120528499e+00 1.545376614305456826e+02 9.151597334228155489e+01
1.243600651017362502e+01 1.723695423361065959e+00 1.366957921289724140e+02 9.588040741655069610e+01
1.242649138835686173e+01 1.753523273407761485e+00 1.210202429474774277e+02 1.003738688574327966e+02
1.241532327651096068e+01 1.782874871188953270e+00 1.073009191674086509e+02 1.062208293719784962e+02
1.240241203027727401e+01 1.811656822179098736e+00 9.528006274042473933e+01 1.122468523699130714e+02
1.238766947736887580e+01 1.839767973949606228e+00 8.475784555828738576e+01 1.184510248977390034e+02
1.237097703643082269e+01 1.867278842504185521e+00 7.548772803013346788e+01 1.248386136554027246e+02
1.235238445611171976e+01 1.894120839133705214e+00 6.733411895901446087e+01 1.314150410442343571e+02
1.233180981195458514e+01 1.920315476023595869e+00 6.013515917808256006e+01 1.381858897700051330e+02
1.230926041878945298e+01 1.945852700930562174e+00 5.376662633109831546e+01 1.451569075820663670e+02
1.228471217578922037e+01 1.970750412995015743e+00 4.811766120526057477e+01 1.523428042292469513e+02
1.225813473194246583e+01 1.994782918122538495e+00 4.313374021232632316e+01 1.614490016114283151e+02
1.222945926034967101e+01 2.017762064158987290e+00 3.874940519417015139e+01 1.708244088494780613e+02
1.219850442921662292e+01 2.039688137080354124e+00 3.487710687975404511e+01 1.804769846931851873e+02
1.216520395699853019e+01 2.060585604183009956e+00 3.144590866252346117e+01 1.904149231797808000e+02
1.212952986198763661e+01 2.080454707875041720e+00 2.839229607532641353e+01 2.006466605898258422e+02
1.209143750400703077e+01 2.099320667943934904e+00 2.567077754899227315e+01 2.115504656106417087e+02
1.205102375397254200e+01 2.116974167851625843e+00 2.325774375104904124e+01 2.245926188786326918e+02
1.200821989422112601e+01 2.133318089674440809e+00 2.111910742689989817e+01 2.380203421111355908e+02
1.196283892162950657e+01 2.148346832957178876e+00 1.921636765376039691e+01 2.518450340545448682e+02
1.191476941191955952e+01 2.162086266165705428e+00 1.751684034810504897e+01 2.660784304405780745e+02
1.186420220618916055e+01 2.174561303236380194e+00 1.599547420733570569e+01 2.826090073620011367e+02
1.181111807175937045e+01 2.185547814443236536e+00 1.464284238111027214e+01 3.003944375042706270e+02
1.175542102971509806e+01 2.195101388181632807e+00 1.343431180731222874e+01 3.187056648464254636e+02
1.169694832885667068e+01 2.203232206665586279e+00 1.234812643250960562e+01 3.380049972469469708e+02
1.163600328783096671e+01 2.209875357043631361e+00 1.137862601436782128e+01 3.605229997648518179e+02
1.157243657466223397e+01 2.214960860521544284e+00 1.051072097783148429e+01 3.837067102569931194e+02
1.150615943860630175e+01 2.218542040523324044e+00 9.730563573796539245e+00 4.082697989919946622e+02
1.143743951436569084e+01 2.220569403611594161e+00 9.032012345168013212e+00 4.364078056347356664e+02
1.136616157019276052e+01 2.221030519962916117e+00 8.404611581349714200e+00 4.653776664966194403e+02
