# Radius[km]  Mass[Solar Mass] Lambda Central_pressure[MeV fm-3]
1.894574460894112278e+01 1.651484632879857140e-01 1.418807287047329545e+07 2.207282315035341558e+00
1.806965277490660782e+01 1.735107260108905980e-01 1.102680371479634009e+07 2.388231195622150249e+00
1.732759416639706629e+01 1.822245940357581639e-01 8.631532959052989259e+06 2.579851831747216995e+00
1.669327851711495825e+01 1.912887717580139813e-01 6.798131892284996808e+06 2.782626782668448762e+00
1.614699865898032272e+01 2.006988165252170386e-01 5.383154587610119022e+06 2.997110637193448390e+00
1.566894339185194696e+01 2.105680682269926163e-01 4.274166645312700421e+06 3.259255543605742211e+00
1.524516929533817766e+01 2.210727502530271948e-01 3.392989496521706227e+06 3.536161985745504222e+00
1.487152583337539546e+01 2.322002355496165515e-01 2.696437334690824151e+06 3.821073548890852045e+00
1.454319042724587874e+01 2.439290363067465328e-01 2.147064516079470981e+06 4.114221654029386777e+00
1.425560835710025032e+01 2.562370609215354200e-01 1.714551775323453592e+06 4.415844412325347967e+00
1.400374034801241407e+01 2.691123178373412417e-01 1.373419400839558337e+06 4.726186818526707967e+00
1.378359272472869534e+01 2.825324062501307076e-01 1.103854968965228181e+06 5.045500949963529713e+00
1.359127374770903174e+01 2.964887289701004791e-01 8.905000513119001407e+05 5.374046171299133867e+00
1.342331609655787261e+01 3.109592591092652514e-01 7.211416623701729113e+05 5.712089345200495494e+00
1.327686632734217120e+01 3.259385116458426435e-01 5.860644252914838726e+05 6.059905049098927243e+00
1.314903863510438420e+01 3.414077137473696122e-01 4.779796174802503665e+05 6.417775798217085992e+00
1.303773689597891483e+01 3.573634576737764190e-01 3.913358784345498425e+05 6.785992275043535749e+00
1.294089067933251691e+01 3.737858965704108916e-01 3.214846642974033020e+05 7.164853565441198668e+00
1.285661231659017112e+01 3.906794271194634072e-01 2.649711038489792845e+05 7.554667401581479425e+00
1.278359331913665997e+01 4.080166500601388191e-01 2.191184406699038809e+05 7.955750411901468588e+00
1.272029028493923164e+01 4.258013179452612706e-01 1.817405164829610148e+05 8.368428378287067204e+00
1.266563920483512362e+01 4.440187973592782944e-01 1.512063587148973020e+05 8.793036500691155055e+00
1.261859311250621296e+01 4.626563131266071549e-01 1.261594138501147536e+05 9.229919669401621007e+00
1.257802516939886317e+01 4.817250509315135765e-01 1.055287966994054586e+05 9.679432745180358566e+00
1.254336624769073971e+01 5.011983977159297776e-01 8.849788362578676606e+04 1.014194084750088898e+01
1.251381046216118875e+01 5.210708639979509949e-01 7.440550537327620259e+04 1.061781965111867265e+01
1.248871949300520079e+01 5.413375506376024715e-01 6.269368852303233143e+04 1.110745569121502108e+01
1.246751737093783063e+01 5.620559285780720726e-01 5.291329024944315461e+04 1.177337572021233214e+01
1.245001164002107252e+01 5.833940425875118185e-01 4.468533248819855362e+04 1.252318105515488256e+01
1.243622159946046146e+01 6.053341442231905400e-01 3.776973533113284793e+04 1.329466260098825714e+01
1.242585213785642217e+01 6.278545245067284064e-01 3.195736691196386892e+04 1.408844699785047894e+01
1.241864146412383718e+01 6.509414589467722445e-01 2.707000636332278737e+04 1.490517900149325037e+01
1.241436456633572405e+01 6.745728562277760743e-01 2.296327077203838780e+04 1.574552200698838789e+01
1.241270763418344458e+01 6.987243296572308582e-01 1.950745042344003014e+04 1.661015858757406960e+01
1.241336743113361152e+01 7.233809291444368572e-01 1.659538402451463844e+04 1.749979104907881933e+01
1.241606364034446131e+01 7.485190985965876065e-01 1.413874237931855714e+04 1.841514200037314097e+01
1.242059693566414680e+01 7.741262191659692427e-01 1.206460079867008062e+04 1.935695494031265795e+01
1.242669820747908993e+01 8.001886426864572854e-01 1.031021741901145651e+04 2.032599486164914637e+01
1.243417287072792909e+01 8.266786576415415810e-01 8.824247912344006181e+03 2.132304887240008640e+01
1.244267564159302353e+01 8.535785175616419362e-01 7.563553047843231980e+03 2.234892683518148715e+01
1.245206776434608287e+01 8.808711791825847293e-01 6.492211725221576671e+03 2.340446202502328177e+01
1.246212706958447924e+01 9.085418138499612439e-01 5.580576821147132250e+03 2.449051180620155677e+01
1.247271792468198726e+01 9.365668072280509682e-01 4.803815455983090033e+03 2.560795832863741950e+01
1.248367319259117636e+01 9.649339363485812671e-01 4.140732099872044273e+03 2.675770924442809573e+01
1.249475939170508987e+01 9.936202531227950052e-01 3.573752607834732771e+03 2.794069844509240852e+01
1.250586873234505880e+01 1.022610856226283227e+00 3.088200278389571849e+03 2.923358215230791757e+01
1.251698983638700824e+01 1.051904140226251227e+00 2.672032624653085350e+03 3.093124534824281113e+01
1.252794691740814237e+01 1.081494181501037044e+00 2.314461130609235170e+03 3.267798648980139831e+01
1.253880461282632730e+01 1.111355315644736663e+00 2.007231380644866249e+03 3.447522437710395593e+01
1.254939594533052905e+01 1.141460814375443444e+00 1.742781995369175775e+03 3.632441882653093046e+01
1.255965671131486161e+01 1.171782750382301730e+00 1.515091786219124515e+03 3.822707185646659411e+01
1.256946547326006325e+01 1.202302734491141223e+00 1.318612794681542482e+03 4.018472890732206793e+01
1.257873490777281233e+01 1.232988278106117663e+00 1.149135768563703778e+03 4.219898009682749063e+01
1.258735056401688190e+01 1.263816943046706109e+00 1.002518062915129690e+03 4.427146151161419141e+01
1.259526624342559487e+01 1.294774360118535306e+00 8.756192538692218932e+02 4.640385653613486738e+01
1.260236394373558255e+01 1.325819213637561056e+00 7.656159473631462333e+02 4.859789722000202516e+01
1.260854262974681284e+01 1.356936374504771781e+00 6.701588131369380790e+02 5.085536568485471776e+01
1.261378107552036276e+01 1.388106234875099876e+00 5.872251119471542324e+02 5.317809557189677605e+01
1.261796042091921954e+01 1.419296993468406320e+00 5.150638017046607047e+02 5.556797353128184369e+01
1.262097053388063017e+01 1.450488294118464028e+00 4.521906521020704872e+02 5.820268592661979312e+01
1.262282986946700269e+01 1.481575650300385183e+00 3.975028378592436979e+02 6.150078339682062989e+01
1.262345165143017489e+01 1.512512773140944011e+00 3.498933122051329860e+02 6.489422595590114895e+01
1.262274810785669743e+01 1.543264184613233558e+00 3.083776581305057221e+02 6.838576994628465400e+01
1.262071052966378915e+01 1.573809564757308710e+00 2.721495349963554418e+02 7.197825139382283055e+01
1.261727869989025308e+01 1.604141489687973987e+00 2.404512166833317508e+02 7.567458831137329867e+01
1.261238243725192909e+01 1.634237131843076174e+00 2.126725033563745626e+02 7.947778306897160405e+01
1.260600145979994302e+01 1.664066124861800056e+00 1.883101215365041412e+02 8.339092483252301236e+01
1.259809476481577306e+01 1.693621647445037404e+00 1.669005662242410040e+02 8.741719207299415473e+01
1.258862463560039302e+01 1.722879553098108030e+00 1.480690677233327506e+02 9.155985514814410919e+01
1.257754707083069867e+01 1.751819897459151232e+00 1.314746449269502477e+02 9.582227895889005254e+01
1.256481911176921251e+01 1.780380529830624781e+00 1.168682787962529517e+02 1.009293795847810173e+02
1.255036263985232559e+01 1.808330072161350666e+00 1.040571076173130933e+02 1.066389444705825298e+02
1.253410438294930884e+01 1.835630788374845945e+00 9.280223587199394331e+01 1.125135678412892588e+02
1.251590284880331438e+01 1.862280382672860002e+00 8.289320963544406595e+01 1.185580213921150232e+02
1.249579345454064061e+01 1.888288926658934885e+00 7.413628259303288814e+01 1.247772147637737845e+02
1.247365078693710849e+01 1.913625288275317970e+00 6.638785169594684987e+01 1.311761995303619130e+02
1.244956572219871127e+01 1.938318204756861007e+00 5.951733851874418235e+01 1.377601733025275053e+02
1.242342852760655525e+01 1.962336652382628222e+00 5.341315585419990697e+01 1.445344839492579467e+02
1.239529513676605710e+01 1.985620365681135091e+00 4.799128022769910729e+01 1.527181789076535665e+02
1.236512433718067250e+01 2.007930790740176441e+00 4.320489644986276545e+01 1.615514411685002472e+02
1.233277239262969793e+01 2.029230993627218371e+00 3.896932009331833768e+01 1.706400652502050548e+02
1.229815188415523686e+01 2.049555582274547483e+00 3.520188179451105981e+01 1.799914334377747878e+02
1.226126343920112305e+01 2.068892641668544474e+00 3.184814974375611385e+01 1.896131414315650545e+02
1.222202535742710872e+01 2.087306351481772460e+00 2.884596261650761306e+01 1.995130045169288735e+02
1.218056674876842926e+01 2.104710099109483590e+00 2.616471199156680427e+01 2.114425643875296998e+02
1.213688252735581585e+01 2.120905509130925015e+00 2.378258594229037826e+01 2.240621402480390714e+02
1.209087557879163910e+01 2.135934373687822685e+00 2.165808530358466655e+01 2.370465369159732916e+02
1.204247221426089887e+01 2.149837493831046498e+00 1.975045249876539089e+01 2.504063010390960073e+02
1.199164699485709207e+01 2.162622899791860398e+00 1.803703906137188184e+01 2.644627872238237387e+02
1.193857555301004858e+01 2.174185687853122051e+00 1.650230195936102007e+01 2.811880962933927322e+02
1.188324937709245255e+01 2.184452156072826501e+00 1.513060509585504576e+01 2.983969192961268959e+02
1.182555718197154704e+01 2.193474414261175287e+00 1.389578725963856876e+01 3.161032341933654948e+02
1.176540528450589917e+01 2.201261691616095639e+00 1.278202198118080624e+01 3.351324581074037496e+02
1.170314622427757456e+01 2.207690876854202511e+00 1.178448512761333866e+01 3.569447649799525379e+02
1.163866265043076886e+01 2.212727747118400146e+00 1.088923364933968863e+01 3.793876464053231530e+02
1.157177533323751639e+01 2.216389074510914714e+00 1.008299448872944915e+01 4.030611655536235389e+02
1.150284074427900016e+01 2.218526812686959726e+00 9.362792213877284553e+00 4.302614081992057891e+02
1.143166690596196489e+01 2.219018554666589260e+00 8.721910812395558210e+00 4.582479858685480281e+02
