# Radius[km]  Mass[Solar Mass] Lambda Central_pressure[MeV fm-3]
1.903164973567250939e+01 1.668464324296680956e-01 1.416949839154771529e+07 2.177891783564402051e+00
1.817164321246849212e+01 1.749247737641222988e-01 1.107131343578568287e+07 2.373662906264886185e+00
1.744673516825492143e+01 1.831022109041383905e-01 8.741683316008485854e+06 2.584602880129084124e+00
1.682829263143987930e+01 1.913331821574093261e-01 6.960846121468176134e+06 2.812197361297444242e+00
1.629500266404596687e+01 1.995662596279529633e-01 5.596390406411265954e+06 3.058140021731688307e+00
1.581687819199407841e+01 2.080728694805135393e-01 4.505721124166804366e+06 3.361446144890769538e+00
1.537144972733386616e+01 2.173678313283508579e-01 3.600560686250760686e+06 3.680301348006290496e+00
1.496403638976557104e+01 2.274478330985729158e-01 2.864245423036597203e+06 4.008928010022158261e+00
1.459589796678515050e+01 2.382936870533732820e-01 2.273413402606449556e+06 4.347625581623532298e+00
1.426640945222066392e+01 2.498766412013566640e-01 1.803950661961834878e+06 4.696702690294434213e+00
1.397314806189452163e+01 2.621762726666228005e-01 1.432841730136964936e+06 5.056477421544793849e+00
1.371351274263813025e+01 2.751630425016384218e-01 1.140319340304666432e+06 5.427277608755873395e+00
1.348461889905661515e+01 2.888105489902756950e-01 9.100246540113183437e+05 5.809441131908060996e+00
1.328312728439779633e+01 3.031023308267617455e-01 7.285496794641275192e+05 6.203316225463379574e+00
1.310629744694338328e+01 3.180104525334618293e-01 5.853998703810849693e+05 6.609261795683141649e+00
1.295126053474746897e+01 3.335213625518269054e-01 4.720331959010425489e+05 7.027647747669995226e+00
1.281545142561621375e+01 3.496204670816518978e-01 3.820061026217613253e+05 7.458855322432248691e+00
1.269687319389134927e+01 3.662785394731166155e-01 3.102873404556228197e+05 7.903277444277732044e+00
1.259328931654573580e+01 3.834893611011002124e-01 2.529164749775841774e+05 8.361319078853719944e+00
1.250294159167826358e+01 4.012378948836269332e-01 2.068937061851586332e+05 8.833397602159049455e+00
1.242431516285167170e+01 4.195033873965225979e-01 1.698044595336394559e+05 9.319943180864887822e+00
1.235589774761568194e+01 4.382823918324259549e-01 1.398018365357923321e+05 9.821399164290527395e+00
1.229654302184194670e+01 4.575532596746923475e-01 1.154444221399614617e+05 1.033822248839148195e+01
1.224505605380328177e+01 4.773086789480497361e-01 9.560202187287989364e+04 1.087088409212798545e+01
1.220052120997804757e+01 4.975502074607644487e-01 7.937280991037565400e+04 1.148116619572223485e+01
1.216200643490189570e+01 5.185434881074050262e-01 6.592340634449539357e+04 1.228305826981784143e+01
1.212962341986334458e+01 5.403664263895880948e-01 5.475659556132301805e+04 1.310952468163156759e+01
1.210314281405875647e+01 5.629920378239687828e-01 4.551385346090979147e+04 1.396131852262519324e+01
1.208224543619283864e+01 5.863924651494726303e-01 3.787425959955211874e+04 1.483921596308184299e+01
1.206657758888250775e+01 6.105417173529934516e-01 3.155381079142696399e+04 1.574401695936673384e+01
1.205569099116377885e+01 6.354187781538335189e-01 2.632649617549221875e+04 1.667654598286209477e+01
1.204913397367956840e+01 6.609938613990093970e-01 2.200221840228143628e+04 1.763765277124078423e+01
1.204649994592223727e+01 6.872397147240769666e-01 1.841908644601893320e+04 1.862821310276293829e+01
1.204739259680727059e+01 7.141372391132151387e-01 1.544674223405390330e+04 1.964912959430130357e+01
1.205139405088814009e+01 7.416568244467836024e-01 1.297806704069495208e+04 2.070133252382242972e+01
1.205816272465250094e+01 7.697800602986781815e-01 1.092362850039489240e+04 2.178578067807306695e+01
1.206730353402820555e+01 7.984783885520676527e-01 9.211031316755086664e+03 2.290346222624443229e+01
1.207850339010195384e+01 8.277327482526963820e-01 7.780678055991151268e+03 2.405539562041019153e+01
1.209147315662793964e+01 8.575173136004350383e-01 6.584841605082044225e+03 2.524263052355886217e+01
1.210591101686505233e+01 8.878078137739042752e-01 5.582181978739906299e+03 2.646624876606599486e+01
1.212152984085570928e+01 9.185797869014578065e-01 4.740385443071713780e+03 2.772736533147814697e+01
1.213811303234285255e+01 9.498113640308268879e-01 4.031940504932999829e+03 2.902712937250635861e+01
1.215539486980066997e+01 9.814764619604046114e-01 3.435008003600315078e+03 3.036672525815544788e+01
1.217316801564544093e+01 1.013550806005018678e+00 2.931066571021931395e+03 3.174737365294281588e+01
1.219120569598067227e+01 1.046000506990288681e+00 2.504891586497905337e+03 3.342706027160678417e+01
1.220939527439432837e+01 1.078773664176668534e+00 2.144475225569933173e+03 3.540451337770122109e+01
1.222763830205955493e+01 1.111832527280970151e+00 1.838731438005088876e+03 3.744256640992126961e+01
1.224563690274249161e+01 1.145153769156042500e+00 1.579202395288229354e+03 3.954307647983888074e+01
1.226335802981728129e+01 1.178698815289121571e+00 1.358535823253957460e+03 4.170795761103259025e+01
1.228065442868140167e+01 1.212437684007051208e+00 1.170588416765111560e+03 4.393918248318113484e+01
1.229736452151430726e+01 1.246345564056148714e+00 1.010251959787609167e+03 4.623878422960547852e+01
1.231339485287345070e+01 1.280391260891012850e+00 8.729889876988502238e+02 4.860885828989765400e+01
1.232861350136268364e+01 1.314548001075876327e+00 7.555367545947134431e+02 5.105156431932383043e+01
1.234290713344414314e+01 1.348781137760800553e+00 6.548326604299983273e+02 5.356912815674230899e+01
1.235617674472483252e+01 1.383068769156986066e+00 5.682694073578271627e+02 5.616384385282876934e+01
1.236832936799267202e+01 1.417376842986617591e+00 4.937992438478925123e+02 5.883807576045780507e+01
1.237924502401773985e+01 1.451679329219247805e+00 4.295955459363402156e+02 6.159426068914482499e+01
1.238888461486657278e+01 1.485956865826448148e+00 3.741710377475450287e+02 6.443491012551203312e+01
1.239708345865036421e+01 1.520066725856993317e+00 3.263917115507317135e+02 6.809206763652235850e+01
1.240362536397824833e+01 1.553806336374604191e+00 2.853172768593396427e+02 7.200611346093239717e+01
1.240838707578347133e+01 1.587163991874960933e+00 2.498471324912478622e+02 7.604010695291557909e+01
1.241127861299713508e+01 1.620104349293669310e+00 2.191820094984367415e+02 8.019772396186202457e+01
1.241223252340491001e+01 1.652622122457236609e+00 1.925851512025559202e+02 8.448275298519403975e+01
1.241120944423832739e+01 1.684695787074820483e+00 1.694758242755835624e+02 8.889909862051531775e+01
1.240814570542563011e+01 1.716315082576468143e+00 1.493447467926455090e+02 9.345078512355205191e+01
1.240302641611347489e+01 1.747470681726388086e+00 1.317674682352670459e+02 9.814196007512931885e+01
1.239578143541865884e+01 1.778138762200251133e+00 1.164001716620057891e+02 1.029768981605233620e+02
1.238643572738189746e+01 1.808299160622820034e+00 1.029391530236344465e+02 1.084461304487758184e+02
1.237483473717925442e+01 1.837697456517606742e+00 9.120679059823021362e+01 1.149030009109602020e+02
1.236092126145112680e+01 1.866298847299471042e+00 8.095911672098083045e+01 1.215577450277990721e+02
1.234463756973344672e+01 1.894070470383092175e+00 7.198993485699574535e+01 1.284164267250651221e+02
1.232590424804275742e+01 1.921030233020680100e+00 6.410777588773808588e+01 1.354852957602215326e+02
1.230473107627244467e+01 1.947176527745162256e+00 5.716841574204974563e+01 1.427707934173168383e+02
1.228113745902043874e+01 1.972525629803665526e+00 5.104186575679623417e+01 1.502795583764014111e+02
1.225507087797186756e+01 1.997058841486238023e+00 4.562317588636708621e+01 1.583988264487522599e+02
1.222651818790132694e+01 2.020331797971293586e+00 4.088907670991866894e+01 1.681354416885389185e+02
1.219508765733265854e+01 2.042122143673589019e+00 3.675188487816463123e+01 1.781704398140819308e+02
1.216054559425240456e+01 2.062457624899852959e+00 3.311690921110084673e+01 1.885129649010502249e+02
1.212281858130873324e+01 2.081381863831442303e+00 2.990797045385971842e+01 1.991724412493609009e+02
1.208190048810253181e+01 2.098847488581331522e+00 2.706835464524584367e+01 2.113031352898791511e+02
1.203772951493647980e+01 2.114430012688929494e+00 2.458726658487928418e+01 2.247178042996570753e+02
1.198998414117404110e+01 2.128112796244228111e+00 2.240717351900812204e+01 2.385435717817506145e+02
1.193850196270833131e+01 2.139973301859684707e+00 2.047562911268935082e+01 2.533927966653326109e+02
1.188328337786540700e+01 2.150047480793847221e+00 1.876009770000069565e+01 2.704846649609299334e+02
1.182445834242866667e+01 2.158443243199825279e+00 1.722613332662337982e+01 2.881003211293566437e+02
1.176202637010682217e+01 2.165255194441306763e+00 1.584740692797991990e+01 3.065367811865090175e+02
1.169624941450712186e+01 2.170574062253593617e+00 1.460363111995803109e+01 3.281389099624038295e+02
1.162726859713624528e+01 2.174460161555639370e+00 1.348012664723869491e+01 3.504030455408570219e+02
1.155517776163026866e+01 2.177015971971566710e+00 1.245827844055324896e+01 3.737136173097549090e+02
1.148022244924169399e+01 2.178285628646480010e+00 1.152971052622524439e+01 4.008354766292973750e+02
1.140259399851697175e+01 2.178353391581861587e+00 1.068312409152198228e+01 4.287884973382493285e+02
