# Radius[km]  Mass[Solar Mass] Lambda Central_pressure[MeV fm-3]
1.937767377658558487e+01 1.549745218617935016e-01 1.671869234121987596e+07 2.331277560913555202e+00
1.840037125052352351e+01 1.621681993109893583e-01 1.304306270530397259e+07 2.528403546199717411e+00
1.756838314490601505e+01 1.696745614167596561e-01 1.024182088385360688e+07 2.737707054974914733e+00
1.685466289397571060e+01 1.774852180645511701e-01 8.092189260409046896e+06 2.959907023310415664e+00
1.623717685120963949e+01 1.856023082136895874e-01 6.426268365553673357e+06 3.195425585667030610e+00
1.569961334957501542e+01 1.940168404159297311e-01 5.128434776550319046e+06 3.444917068498143831e+00
1.522859386960513106e+01 2.027298772819314809e-01 4.111316646354523022e+06 3.709540571704770251e+00
1.481374221360751697e+01 2.117329550651410042e-01 3.308693764631264843e+06 3.989631429268629237e+00
1.444637020541046013e+01 2.210328369647224789e-01 2.673858291153492406e+06 4.286127512206743262e+00
1.411965946354190393e+01 2.306203461393444842e-01 2.168215685496550519e+06 4.600081814265919000e+00
1.382794256277492906e+01 2.404932281455222642e-01 1.764644067475426709e+06 4.932078658658090475e+00
1.356629363121030529e+01 2.506500750405976086e-01 1.440912449401707621e+06 5.283501438044918785e+00
1.332753304459406252e+01 2.612927738884180395e-01 1.176313919621405657e+06 5.703678825485779313e+00
1.310666236570354215e+01 2.727457444915446505e-01 9.562050631594636943e+05 6.144624596365521718e+00
1.290526394522777842e+01 2.850057337196889029e-01 7.753272018533675000e+05 6.598119322916461194e+00
1.272377043952113773e+01 2.980506563913656870e-01 6.280774185790859628e+05 7.064520138144148476e+00
1.256174893222958566e+01 3.118614625856699907e-01 5.087880781208483968e+05 7.544194338767113983e+00
1.241832204269916673e+01 3.264218539703049315e-01 4.125806632242532796e+05 8.037519674467828779e+00
1.229228731752617421e+01 3.417075133285772948e-01 3.351346491258966853e+05 8.544884645375462995e+00
1.218236585416426720e+01 3.577123004624973013e-01 2.727828416704610572e+05 9.066688808014855994e+00
1.208726781000512140e+01 3.744094759605567924e-01 2.225728649480884196e+05 9.603343089962454115e+00
1.200565598383809807e+01 3.917876664677002463e-01 1.820884592072929372e+05 1.015527011345712971e+01
1.193623429988812923e+01 4.098330177544740605e-01 1.493990662594557507e+05 1.072290452822069184e+01
1.187790266396555161e+01 4.285276756274999377e-01 1.229287470319652639e+05 1.130669335375024609e+01
1.182952714457302257e+01 4.478603333272078713e-01 1.014579346126517194e+05 1.190709633135182877e+01
1.179009017305505047e+01 4.678161686876395886e-01 8.397593470227177022e+04 1.252458628619269376e+01
1.175870186449363430e+01 4.883804630777720535e-01 6.971369881625749986e+04 1.315964949965730391e+01
1.173448748704258193e+01 5.095444488983343900e-01 5.803575378670702048e+04 1.381278609230020216e+01
1.171665123889134641e+01 5.312981546667872035e-01 4.844967342772228585e+04 1.448451041769755321e+01
1.170458835418999577e+01 5.536200708166131301e-01 4.054973153187666321e+04 1.517535146750720720e+01
1.169759838860550083e+01 5.765089115641275352e-01 3.403058508405004250e+04 1.588585328805656083e+01
1.169514439106478498e+01 5.999431092396236842e-01 2.863223397649350227e+04 1.661657540878614370e+01
1.169663591908554423e+01 6.239176183411015986e-01 2.414236897351882362e+04 1.736809328288626375e+01
1.170166330645414554e+01 6.484155363246310033e-01 2.040485472764415317e+04 1.814099874047399297e+01
1.170980247828069309e+01 6.734266899707189724e-01 1.728623382614874936e+04 1.893590045466703486e+01
1.172065971405228701e+01 6.989381930149667355e-01 1.467176337501249145e+04 1.975342442092176043e+01
1.173386701988487424e+01 7.249346758195006624e-01 1.247892974996396333e+04 2.059421445001275330e+01
1.174910457502952355e+01 7.514057387564524459e-01 1.063302585923841070e+04 2.145893267504222024e+01
1.176607742328447870e+01 7.783353129340564447e-01 9.076888041618467469e+03 2.239065532599032693e+01
1.178467052875448395e+01 8.057850632651529788e-01 7.759071920264171240e+03 2.364993109998338028e+01
1.180477712655324396e+01 8.337848576449474747e-01 6.640732187821928164e+03 2.494504483163306929e+01
1.182630445115232298e+01 8.623105734955768265e-01 5.690621042054703139e+03 2.627701643987654023e+01
1.184906815282402270e+01 8.913304532398295121e-01 4.883516442782956801e+03 2.764689486970897647e+01
1.187287241274955285e+01 9.208249972417646978e-01 4.196153938687481059e+03 2.905575891824143042e+01
1.189757466351954385e+01 9.507732510451226693e-01 3.611103213218234941e+03 3.050471808426762621e+01
1.192300269779664035e+01 9.811438995437152810e-01 3.111873985171014283e+03 3.199491344200864873e+01
1.194893039051570049e+01 1.011925922936366851e+00 2.685233846359888503e+03 3.352751853972384311e+01
1.197531337745426505e+01 1.043083702517259015e+00 2.320505466614335546e+03 3.510374032389535159e+01
1.200188283516446930e+01 1.074603667961412823e+00 2.007821273861603004e+03 3.672482008971407197e+01
1.202862022035998812e+01 1.106460094186682674e+00 1.739761561860079610e+03 3.839203445861599562e+01
1.205531723892394602e+01 1.138629652326888175e+00 1.509276787103259494e+03 4.010669638363800260e+01
1.208183755113710234e+01 1.171084973295676290e+00 1.311079489887743648e+03 4.187015618338569567e+01
1.210810630556093415e+01 1.203804363615191608e+00 1.140330801850431953e+03 4.368380260542669902e+01
1.213402786464868655e+01 1.236764416576463743e+00 9.931286878991461435e+02 4.554906391994762060e+01
1.215946406583737271e+01 1.269943408713535504e+00 8.658304654465232488e+02 4.746740904453533716e+01
1.218428922816139703e+01 1.303316327039235167e+00 7.557517721546811345e+02 4.944034870096871970e+01
1.220845916096451056e+01 1.336858453106759104e+00 6.604251328960957608e+02 5.146943660493185035e+01
1.223187065334908219e+01 1.370548548432224401e+00 5.777523293725405438e+02 5.355627068958519033e+01
1.225440509765024011e+01 1.404315916187811819e+00 5.060622781529740450e+02 5.604088319499592075e+01
1.227564525415639274e+01 1.437881811188517434e+00 4.441512644295228824e+02 5.896030692531746809e+01
1.229546302466479268e+01 1.471192001942952743e+00 3.906011652845162985e+02 6.196281506509861714e+01
1.231373740650470516e+01 1.504224909660013765e+00 3.441414611037056375e+02 6.505077212861789349e+01
1.233034566160754864e+01 1.536964460508340125e+00 3.037361008976583321e+02 6.822660992229442911e+01
1.234529027036781024e+01 1.569401803016184482e+00 2.685032426967180186e+02 7.149282945976743520e+01
1.235846510443920643e+01 1.601528171509833731e+00 2.377032767242010323e+02 7.485200293147680384e+01
1.236984667012887584e+01 1.633321288503083002e+00 2.107280284531663028e+02 7.830677573029673511e+01
1.237938431517184767e+01 1.664775310944474285e+00 1.870481569646925095e+02 8.185986853481711023e+01
1.238705924305117811e+01 1.695887759190857658e+00 1.662190315592183936e+02 8.551407945191314752e+01
1.239283267685834034e+01 1.726627959321754835e+00 1.478781893419579205e+02 8.927228622029129212e+01
1.239668852020118806e+01 1.756998353888339581e+00 1.316858338540247075e+02 9.313744847674563232e+01
1.239849714987095375e+01 1.786823838468035497e+00 1.174476350132477620e+02 9.814439185329510451e+01
1.239810490665231768e+01 1.815927140572333176e+00 1.049443012121571002e+02 1.033363594199671951e+02
1.239538297671954759e+01 1.844282906868193850e+00 9.393927016307306133e+01 1.086760861333264359e+02
1.239033192875524314e+01 1.871915744504856649e+00 8.421445820052539943e+01 1.141677770977286457e+02
1.238285147980951884e+01 1.898792502572142604e+00 7.561127791495998451e+01 1.198157570913570709e+02
1.237308828667875460e+01 1.924990695674209551e+00 6.796425951747805527e+01 1.256244739720419261e+02
1.236089433067138366e+01 1.950446500605185207e+00 6.116816030255500181e+01 1.315985021800059087e+02
1.234632195497131946e+01 1.975192777674665390e+00 5.510540828803981128e+01 1.377425463402959736e+02
1.232932074950307211e+01 1.999065425799125384e+00 4.971778375571601316e+01 1.453082966193204300e+02
1.230977734162593862e+01 2.021811005008295137e+00 4.495779642226580108e+01 1.533051999164649146e+02
1.228747243019104829e+01 2.043391655165503362e+00 4.073686000285554343e+01 1.615296885350028901e+02
1.226231943540133429e+01 2.063839539855696792e+00 3.697539826101568394e+01 1.699882393668747511e+02
1.223439739730295805e+01 2.083213975269760265e+00 3.361120761633365106e+01 1.786875136310635526e+02
1.220361794957134904e+01 2.101501319940546786e+00 3.059767701388284777e+01 1.879331583354124859e+02
1.217005822584121510e+01 2.118214173523766952e+00 2.794058199716362978e+01 1.988955147367460654e+02
1.213318439524919334e+01 2.133031161067016068e+00 2.560846574895129635e+01 2.101698508272323238e+02
1.209264038807286923e+01 2.145963002416863219e+00 2.354576996858061833e+01 2.217650452934311147e+02
1.204858842635293037e+01 2.156693496397172005e+00 2.174765067954943021e+01 2.351589541990375665e+02
1.200056940478804357e+01 2.164260535843821831e+00 2.023332208985284808e+01 2.493580252905150871e+02
1.194814701647600685e+01 2.168244844677638117e+00 1.898464219300721467e+01 2.657430420401126412e+02
