# Radius[km]  Mass[Solar Mass] Lambda Central_pressure[MeV fm-3]
1.902352860451291150e+01 1.584420940101628483e-01 1.530105966808626056e+07 2.301067903493910105e+00
1.797642418836245071e+01 1.674973918386668259e-01 1.148799237761498801e+07 2.506724908860038514e+00
1.711050603004769499e+01 1.770528493181896534e-01 8.698921392901215702e+06 2.724750895843704335e+00
1.638739712268428050e+01 1.870994633716797362e-01 6.638225358366967179e+06 2.955771211192896875e+00
1.577873272296496410e+01 1.976237333257001572e-01 5.101552926605083048e+06 3.200460304770151865e+00
1.526207935315953890e+01 2.086256624412646810e-01 3.945724169007446151e+06 3.459543250616950782e+00
1.482116089375985979e+01 2.200911034014094714e-01 3.070239450537613593e+06 3.733867789971756501e+00
1.444234183643504821e+01 2.320173505046428108e-01 2.402596176016030833e+06 4.024181562453690297e+00
1.411272667475637554e+01 2.445359937147553453e-01 1.885584691204863833e+06 4.380471501637701159e+00
1.382397666283360493e+01 2.577847376894283338e-01 1.481913527127945796e+06 4.750835541337359302e+00
1.357227054069559458e+01 2.717434999060771572e-01 1.167211089883782202e+06 5.132848266563783568e+00
1.335394382415850778e+01 2.863841347128375237e-01 9.221448411340635503e+05 5.526876051640485343e+00
1.316494257572033533e+01 3.016904279066965899e-01 7.311770847688234644e+05 5.933296794092007609e+00
1.300172838110913176e+01 3.176416592074159939e-01 5.819048437145696953e+05 6.352500277071507107e+00
1.286119969836217614e+01 3.342208434462061173e-01 4.648614428282318404e+05 6.784888543187370225e+00
1.274038495494285961e+01 3.514086825744652254e-01 3.728972018185928464e+05 7.230876280087526808e+00
1.263683955705241679e+01 3.691938626814807445e-01 3.002591894080077182e+05 7.690891218171016064e+00
1.254841920521033138e+01 3.875610109717481100e-01 2.427488450687502045e+05 8.165374540808505444e+00
1.247315446033706365e+01 4.064953753271284276e-01 1.969762803501466115e+05 8.654781307464970652e+00
1.240939527815931598e+01 4.259809679474342303e-01 1.604446143684482959e+05 9.159580890130436970e+00
1.235566296220094706e+01 4.460116882456936493e-01 1.311320445724468736e+05 9.680257423477405254e+00
1.231060172051463830e+01 4.665743445711979520e-01 1.075333493399637955e+05 1.021731026917650986e+01
1.227313806624611203e+01 4.876470478097891803e-01 8.847055773262263392e+04 1.077125449481594011e+01
1.224224571902102277e+01 5.092325255521351623e-01 7.300790602945401042e+04 1.134262136788376196e+01
1.221711420788141389e+01 5.313088068082891802e-01 6.042747647965938813e+04 1.193195886528695304e+01
1.219693197194175660e+01 5.538700576459454350e-01 5.015349562529720424e+04 1.253983219889591361e+01
1.218106597985186568e+01 5.769024300995373444e-01 4.173556405821425869e+04 1.316682435761829417e+01
1.216877849658251520e+01 6.004260045996741013e-01 3.480680755638978007e+04 1.394110898631270246e+01
1.216002358862452581e+01 6.246280821212696344e-01 2.905747353305705838e+04 1.488081752602875341e+01
1.215462770971335082e+01 6.495133260834291544e-01 2.428612955957134545e+04 1.585008176795295753e+01
1.215239337190521240e+01 6.750502115196713726e-01 2.032360772301233737e+04 1.684983129769197774e+01
1.215301598805751837e+01 7.012213370984587968e-01 1.703471616506018472e+04 1.788102493816838390e+01
1.215617959861050856e+01 7.279963373532315485e-01 1.430169022994216721e+04 1.894465166919225751e+01
1.216155615620416874e+01 7.553461582940775854e-01 1.202552591821179522e+04 2.004173157595533894e+01
1.216891475095662400e+01 7.832542363328041102e-01 1.013048902638142135e+04 2.117331682735710174e+01
1.217796447390066028e+01 8.116893320393613331e-01 8.548092963003335171e+03 2.234049268510117159e+01
1.218832427900418658e+01 8.406220312321386334e-01 7.226078573317957307e+03 2.354437854452984524e+01
1.219982502365655108e+01 8.700400825389471571e-01 6.118529347343408517e+03 2.478612900819485887e+01
1.221219791358804940e+01 8.999070897319527695e-01 5.190079071677721913e+03 2.606693499319415608e+01
1.222519166345314368e+01 9.302078389271222214e-01 4.409854672368486717e+03 2.738802487333660807e+01
1.223867211789803022e+01 9.609079969614607863e-01 3.752879914113377708e+03 2.875066565722998746e+01
1.225228369700877984e+01 9.919935440109509672e-01 3.198661919663351000e+03 3.015616420342227499e+01
1.226597547429025425e+01 1.023435841735687690e+00 2.730631051233792732e+03 3.160586847376151454e+01
1.227949425375911474e+01 1.055208206421189621e+00 2.334462387209006465e+03 3.322685728306820607e+01
1.229278216285762326e+01 1.087308158204908004e+00 1.998534864632831159e+03 3.528613846367328222e+01
1.230585940267095246e+01 1.119710875127411409e+00 1.713389028946877715e+03 3.741018813234080653e+01
1.231851212549437591e+01 1.152398730170001162e+00 1.470981440153318545e+03 3.960104338681408365e+01
1.233072368358581272e+01 1.185324272770611476e+00 1.264623237577723785e+03 4.186080539561135083e+01
1.234233635600915591e+01 1.218451603182791443e+00 1.088877190820568330e+03 4.419164141317887129e+01
1.235326231899909111e+01 1.251763838079657631e+00 9.388583318817339887e+02 4.659578685842490842e+01
1.236333437879553188e+01 1.285217781111924529e+00 8.106439486338690585e+02 4.907554745862762502e+01
1.237250930227414969e+01 1.318779943021535672e+00 7.007854480449085486e+02 5.163330146077301919e+01
1.238064954950569607e+01 1.352432070407515896e+00 6.066377089757698968e+02 5.427150191244405164e+01
1.238764243878349092e+01 1.386127848221456516e+00 5.258040438162045120e+02 5.699267901444810747e+01
1.239344600520573358e+01 1.419844694829577980e+00 4.563215827821788935e+02 5.979944254743924859e+01
1.239789021564126870e+01 1.453555168149678334e+00 3.964227735469336835e+02 6.269448437486286707e+01
1.240100591166765831e+01 1.487184537987261690e+00 3.448673988495891649e+02 6.643512420181356504e+01
1.240265782880288370e+01 1.520646686347716159e+00 3.004593384722454630e+02 7.041413717973168218e+01
1.240284569439328521e+01 1.553912504176356624e+00 2.621526580454433883e+02 7.451829802817266568e+01
1.240148154093167676e+01 1.586946490176735391e+00 2.290554912137458246e+02 7.875154289652417106e+01
1.239854893769306443e+01 1.619742925553776969e+00 2.003905893720955476e+02 8.311793173389924050e+01
1.239397189414895628e+01 1.652241994859942942e+00 1.755450021925596218e+02 8.762165218288375002e+01
1.238767919671808926e+01 1.684454798985414392e+00 1.539759684698738624e+02 9.226702359575018875e+01
1.237965700631067811e+01 1.716322068227223996e+00 1.351855240537615828e+02 9.705850117698918211e+01
1.236984128063860844e+01 1.747833659806074191e+00 1.188339797062890852e+02 1.020006802561318011e+02
1.235823391854996345e+01 1.778964006356779537e+00 1.045714610911403497e+02 1.072880475995356733e+02
1.234472357507260654e+01 1.809587188756827558e+00 9.214142890825097254e+01 1.139301659183608990e+02
1.232939303005746190e+01 1.839620715307976884e+00 8.131520549157330890e+01 1.207811920663324798e+02
1.231213876176936850e+01 1.869043062041074732e+00 7.186660400810717420e+01 1.278476966100955963e+02
1.229297122155514010e+01 1.897834432338356914e+00 6.360497309094252216e+01 1.351364567736820845e+02
1.227185866658935254e+01 1.926010655149392736e+00 5.636104360279223613e+01 1.426544629382961489e+02
1.224875826872728446e+01 1.953529361578970835e+00 5.000097436817961949e+01 1.504089253465317313e+02
1.222367305317167130e+01 1.980395929761003870e+00 4.440569665488923334e+01 1.584072810174498613e+02
1.219657540211897917e+01 2.006563339583895988e+00 3.947973490341637159e+01 1.670993703860947903e+02
1.216733089748844066e+01 2.031417028177155526e+00 3.521006202264358365e+01 1.775422203439147211e+02
1.213546207776917285e+01 2.054665444927346929e+00 3.150922045385485148e+01 1.883135186987776990e+02
1.210048095641063881e+01 2.076269182803175184e+00 2.828579617290196779e+01 1.994235958058988274e+02
1.206232552574389238e+01 2.096319581572761770e+00 2.546069580325819359e+01 2.108831069307068162e+02
1.202094368230469001e+01 2.114549743436991314e+00 2.299363015372930263e+01 2.242240654802210145e+02
1.197598070118839253e+01 2.130193782401315072e+00 2.088226003094260719e+01 2.386175545018319610e+02
1.192669768900157301e+01 2.143250609167010712e+00 1.905866633728214410e+01 2.536429136775240067e+02
1.187269474710440065e+01 2.154045589478100542e+00 1.745079326805949904e+01 2.714120395708537785e+02
1.181433006339361746e+01 2.163060949807796618e+00 1.600908148534247744e+01 2.897400398078827948e+02
1.175198039485260004e+01 2.170496055168051441e+00 1.470727538394915257e+01 3.086444920980553661e+02
1.168585647347117629e+01 2.176500608691067207e+00 1.352614823005341016e+01 3.305890325098406493e+02
1.161634508570042001e+01 2.181311653436892595e+00 1.244633221249902455e+01 3.539879064128822961e+02
1.154384759407720473e+01 2.185074925689200587e+00 1.145695125396100522e+01 3.781227214294236774e+02
1.146861572476341173e+01 2.187900330931349835e+00 1.054739794088703952e+01 4.035782962248050012e+02
1.139112676703595817e+01 2.189785331634162446e+00 9.715298901938718146e+00 4.333696770258981132e+02
1.131161739397970045e+01 2.190712458193025292e+00 8.956224089103818287e+00 4.640980559940957164e+02
