# Radius[km]  Mass[Solar Mass] Lambda Central_pressure[MeV fm-3]
1.883223369299029670e+01 1.703498456362390889e-01 1.325503489802358672e+07 2.145931023155295492e+00
1.803738889654824717e+01 1.787201173918352981e-01 1.042854387358076498e+07 2.315691131325102514e+00
1.735924288398696191e+01 1.873883879551400400e-01 8.258018400428696536e+06 2.495365992225753615e+00
1.677513360556393707e+01 1.963596789601734505e-01 6.576332851493977942e+06 2.685656801919944048e+00
1.626827504114213596e+01 2.056310404192216168e-01 5.263304734596217982e+06 2.886515102426210344e+00
1.582510239805935548e+01 2.152142217525845336e-01 4.230381629279334098e+06 3.099304498786881190e+00
1.543529703542517417e+01 2.251161939601227513e-01 3.414952262905548792e+06 3.323606727304754482e+00
1.509066395244723147e+01 2.353420882492357202e-01 2.766486709111887496e+06 3.560638717361937822e+00
1.478446365991032252e+01 2.459029459740240398e-01 2.248140847452571616e+06 3.810536880855867725e+00
1.451148697268555132e+01 2.568057671747800974e-01 1.832433100930905202e+06 4.073902270842321371e+00
1.426711989212027554e+01 2.680663180386839706e-01 1.497780919522183016e+06 4.351613109867927598e+00
1.404777134094125657e+01 2.796909508723787186e-01 1.227269081106858095e+06 4.643606735487957771e+00
1.385038410366963291e+01 2.916937906009808290e-01 1.008011649718831060e+06 4.951478810393805219e+00
1.367257937797836576e+01 3.040826319689418078e-01 8.297422476973682642e+05 5.274637267314673750e+00
1.351190442860285934e+01 3.168758014435320569e-01 6.843826217861121986e+05 5.615095869671826279e+00
1.336680770108853267e+01 3.300742552845630784e-01 5.655645128912351793e+05 5.972137152013778483e+00
1.323562774833339439e+01 3.436919532070275562e-01 4.682888254625916597e+05 6.347781129314172155e+00
1.311683550298161904e+01 3.577473363757567859e-01 3.884379193345134845e+05 6.741446021524032162e+00
1.300952232362981320e+01 3.722439079997780786e-01 3.227624099961323664e+05 7.155246004385787728e+00
1.291244058575591680e+01 3.871913410566788505e-01 2.685595708657274954e+05 7.588472290402260789e+00
1.282476332034203992e+01 4.025995040633063016e-01 2.238434658828013635e+05 8.043639714164100951e+00
1.274567814195126658e+01 4.184806056326366708e-01 1.868474937426340475e+05 8.519800052336838903e+00
1.267446190653108928e+01 4.348425255044279791e-01 1.561910899572943745e+05 9.019596635983038624e+00
1.261048967357979578e+01 4.516920508836270720e-01 1.307824402004517760e+05 9.542409529213054853e+00
1.255318065776074477e+01 4.690396928094204831e-01 1.096168154585808661e+05 1.009028836188305789e+01
1.250192322012999391e+01 4.869092487443168471e-01 9.199543201725475956e+04 1.070610874098748333e+01
1.245639136793038659e+01 5.054258467136661936e-01 7.724144182687287685e+04 1.138719968966383966e+01
1.241640886256106313e+01 5.245996408845766679e-01 6.488304855998142739e+04 1.208748422872978701e+01
1.238177912456892571e+01 5.444067601009134894e-01 5.454535947144268721e+04 1.280750324617209834e+01
1.235218515937761730e+01 5.648255460339975942e-01 4.590774667523090466e+04 1.354781287255636890e+01
1.232724075997131763e+01 5.858397742909356998e-01 3.868967311695044191e+04 1.430898491057289768e+01
1.230671839223742658e+01 6.074275741871357770e-01 3.265824656845910795e+04 1.509160727668744073e+01
1.229010954304057712e+01 6.295694624135628192e-01 2.760782283389398071e+04 1.589628445523801226e+01
1.227714520821061051e+01 6.522506151263515184e-01 2.337452454117488742e+04 1.672363796532840752e+01
1.226748177049705824e+01 6.754470472590169416e-01 1.982756411361237406e+04 1.757430684087904282e+01
1.226067037024085593e+01 6.991452656130129339e-01 1.684594629211215579e+04 1.844894812420609043e+01
1.225665464039905572e+01 7.233365587301299193e-01 1.433910645576065508e+04 1.934823737350982142e+01
1.225490926932715219e+01 7.479860358706945656e-01 1.222587265711597684e+04 2.027286918466441534e+01
1.225515938302032737e+01 7.730878063978767756e-01 1.044100541598148993e+04 2.122355772771211946e+01
1.225722268295399076e+01 7.986188467379835565e-01 8.932168338521882106e+03 2.220103729847616592e+01
1.226077865433653002e+01 8.245638317801881056e-01 7.653511163085547196e+03 2.320606288571847031e+01
1.226564455551957522e+01 8.509103622884969242e-01 6.568604412686155229e+03 2.423941075428029635e+01
1.227160333809884918e+01 8.776354341506285017e-01 5.646419237599337976e+03 2.530187904465607573e+01
1.227847144655592437e+01 9.047237088668245164e-01 4.861168855117287421e+03 2.639428838946376032e+01
1.228597990503984683e+01 9.321638657782757020e-01 4.190867496635205498e+03 2.755749772969127775e+01
1.229410869093397807e+01 9.600079411305926236e-01 3.616848560549490685e+03 2.911366514611176015e+01
1.230303745266604309e+01 9.882915298268402093e-01 3.125253586789083784e+03 3.071368638268126361e+01
1.231244860478842007e+01 1.017005778800515792e+00 2.701917259126853423e+03 3.235879726886224006e+01
1.232243579681751200e+01 1.046088004834809793e+00 2.339134832536045906e+03 3.405026846060326307e+01
1.233284800398367942e+01 1.075538082516732885e+00 2.027433312998987958e+03 3.578940642177229137e+01
1.234353452507843585e+01 1.105320729499865928e+00 1.759363088002154882e+03 3.757755443324742117e+01
1.235439911103058463e+01 1.135418365316322120e+00 1.528502649944561654e+03 3.941609363044438652e+01
1.236534582439749208e+01 1.165783276685329772e+00 1.329623853030698683e+03 4.130644407008232122e+01
1.237621689854567997e+01 1.196409128850174808e+00 1.157956770055239076e+03 4.325006582701153235e+01
1.238694841095481003e+01 1.227260956503389400e+00 1.009663562774983120e+03 4.524846012195097700e+01
1.239738765717552837e+01 1.258314964933667124e+00 8.814142569101528579e+02 4.730317048100565813e+01
1.240749182310797671e+01 1.289542543968052124e+00 7.703856014476496057e+02 4.941578392786026086e+01
1.241708553868113896e+01 1.320925953123526453e+00 6.740919690131401012e+02 5.158793220956953007e+01
1.242617654335729149e+01 1.352431914043221273e+00 5.904419017270294034e+02 5.382129305689223031e+01
1.243449941660272806e+01 1.384044657880440399e+00 5.177336322380632510e+02 5.611759148014217402e+01
1.244211947393756290e+01 1.415727018423529104e+00 4.544521982139301599e+02 5.863627066532253451e+01
1.244894590636964971e+01 1.447371612181115541e+00 3.994742953587173702e+02 6.180304997375736775e+01
1.245479607522227283e+01 1.478916050924796499e+00 3.516587756523907160e+02 6.505907120358089912e+01
1.245965628771286582e+01 1.510333064761636424e+00 3.099979713029633217e+02 6.840684925076708112e+01
1.246345141765953102e+01 1.541603886076603258e+00 2.736607030677414514e+02 7.184896988271054852e+01
1.246606804291779547e+01 1.572718060161024667e+00 2.418567354166210635e+02 7.538809173542998110e+01
1.246754442758599346e+01 1.603623682480759927e+00 2.140330128521374604e+02 7.902694836705373405e+01
1.246775316939657863e+01 1.634332569135822144e+00 1.896347568796988980e+02 8.276835036917394461e+01
1.246667098229235293e+01 1.664812018976170815e+00 1.681923243685288867e+02 8.661518753770037904e+01
1.246423887795145014e+01 1.695039168394750106e+00 1.493452791441260388e+02 9.057043110489004789e+01
1.246041287534394826e+01 1.724995525022771536e+00 1.327403280272329766e+02 9.463713603427706289e+01
1.245516536435381560e+01 1.754676886645862188e+00 1.180956256331014629e+02 9.881844338027470087e+01
1.244842781755301431e+01 1.783984349652939727e+00 1.051771829046094098e+02 1.037882842396513468e+02
1.243999041190448551e+01 1.812615896097966361e+00 9.386554916536572080e+01 1.093770906300339618e+02
1.242976015773021281e+01 1.840516541712780230e+00 8.393882735209989221e+01 1.151233932561720792e+02
1.241753034435424397e+01 1.867708822961697157e+00 7.517787597944663958e+01 1.210316304654596138e+02
1.240333484831103661e+01 1.894150423265641869e+00 6.745111569477110436e+01 1.271063656808357081e+02
1.238705878858844933e+01 1.919909555043797011e+00 6.059279830426663693e+01 1.333522909254960496e+02
1.236868830317230561e+01 1.944943243333402405e+00 5.450179103682610560e+01 1.397742304469324495e+02
1.234826575120014702e+01 1.969238522951700432e+00 4.908886010480309636e+01 1.463771444431004340e+02
1.232574978486700701e+01 1.992729978249586642e+00 4.427389964337890405e+01 1.542486363724403873e+02
1.230094212524795694e+01 2.015040791176532231e+00 4.003093179020654446e+01 1.627921899276862234e+02
1.227368251007642641e+01 2.036174387775172345e+00 3.627295212463543805e+01 1.715765064349717477e+02
1.224383862588882721e+01 2.056126839912115312e+00 3.293387562873319752e+01 1.806083707524594786e+02
1.221130835146480287e+01 2.074938379751937845e+00 2.995369312749187785e+01 1.898947589400721085e+02
1.217616047719822170e+01 2.092634014308158541e+00 2.728740168491925999e+01 2.000171504192096563e+02
1.213843474774188635e+01 2.108919820760574382e+00 2.492148042008017939e+01 2.117023165374021403e+02
1.209786122007647080e+01 2.123708088366812241e+00 2.281896662924858887e+01 2.237167783136014236e+02
1.205435418078028853e+01 2.137055084008699701e+00 2.094015320738548880e+01 2.360698155157873259e+02
1.200781365341053863e+01 2.148964004156134422e+00 1.925510846604737125e+01 2.495295517666122862e+02
1.195843150215656436e+01 2.159221430930807095e+00 1.775789780931376072e+01 2.647384059889083119e+02
1.190597939382696069e+01 2.167776860830165298e+00 1.642296034503830171e+01 2.803758557149398598e+02
1.185030695168843629e+01 2.174652667322490185e+00 1.522776144573550994e+01 2.972477206936734433e+02
1.179167993905392997e+01 2.179756133059178591e+00 1.416283915217728051e+01 3.161661235277792912e+02
1.172984856337912873e+01 2.182914210102663954e+00 1.321928342045458571e+01 3.356176593825612144e+02
1.166489873481720707e+01 2.184180622032565022e+00 1.237926056495176041e+01 3.580907018201087340e+02
