# Radius[km]  Mass[Solar Mass] Lambda Central_pressure[MeV fm-3]
1.955532900661976825e+01 1.547490583341728787e-01 1.722373800070245191e+07 2.323213472150719827e+00
1.858990874069603194e+01 1.614685301479704127e-01 1.355534532430136390e+07 2.523918030468902618e+00
1.775704224684845300e+01 1.684991729344753886e-01 1.071544856323380023e+07 2.737159983021698384e+00
1.703266375254903409e+01 1.758603563572072315e-01 8.506650699387194589e+06 2.963392808701645897e+00
1.639849368372532368e+01 1.835691781569360470e-01 6.774085634441294707e+06 3.203080908126964221e+00
1.584023454225218686e+01 1.916393275418876996e-01 5.409610491701654159e+06 3.456693632542368722e+00
1.534025926668705608e+01 2.002288151372814962e-01 4.317322737955396995e+06 3.764657028074001488e+00
1.488799305659127370e+01 2.095300116202259422e-01 3.434229438903339207e+06 4.085323202624283390e+00
1.448329643665160482e+01 2.195256837667866612e-01 2.727935996225066017e+06 4.415097757083646712e+00
1.412363796230165924e+01 2.301993975344204524e-01 2.167685807301433291e+06 4.754239410927846521e+00
1.380623513292420235e+01 2.415274059651436600e-01 1.724756591713367263e+06 5.103014232444134102e+00
1.352670242474502693e+01 2.534995729485924887e-01 1.375553281505833613e+06 5.461695847470994458e+00
1.328175994468280230e+01 2.660781687693171138e-01 1.100207589203127660e+06 5.830565654067020986e+00
1.306734259216700700e+01 2.792593146566050288e-01 8.828620495349043049e+05 6.209913043277365929e+00
1.288023073651807060e+01 2.930257734340501186e-01 7.109611292147878557e+05 6.600035626170970282e+00
1.271709578685736908e+01 3.073583124658992305e-01 5.745769668209336232e+05 7.001239467326666244e+00
1.257526810782228388e+01 3.222402228306034955e-01 4.661413348764287075e+05 7.413839324951381649e+00
1.245220027309146893e+01 3.376658078936259355e-01 3.795169633190187160e+05 7.838158897818754411e+00
1.234570746814847730e+01 3.536170940876103841e-01 3.102767516316683614e+05 8.274531079221961960e+00
1.225385843753832482e+01 3.700795547965722854e-01 2.543936430795488413e+05 8.723298218139948546e+00
1.217477180569994744e+01 3.870522354192467152e-01 2.093655254512855317e+05 9.184812387821974511e+00
1.210711154732024397e+01 4.045138586312159168e-01 1.728853186048365314e+05 9.659435662001175871e+00
1.204945837792892149e+01 4.224617285669338140e-01 1.432299396581123874e+05 1.014754039895388082e+01
1.200050616706271533e+01 4.408827370116828459e-01 1.190192248470838094e+05 1.064950953362744457e+01
1.195940258378664112e+01 4.597673360221423700e-01 9.919007482140070351e+04 1.116573687806589810e+01
1.192514945746281363e+01 4.791069189570830167e-01 8.289464428340060113e+04 1.169662743036904473e+01
1.189695084313602358e+01 4.988922561448368986e-01 6.946413225507245807e+04 1.224259769242736517e+01
1.187405298050713753e+01 5.191144547876437310e-01 5.835634527099858678e+04 1.280407599668211205e+01
1.185576078894143848e+01 5.397638047149918572e-01 4.913910981905384688e+04 1.338150284216680852e+01
1.184162243933695713e+01 5.608863397439899368e-01 4.145801599665235699e+04 1.412545277312927894e+01
1.183144783648243425e+01 5.826708229147481433e-01 3.499730487869198987e+04 1.498090543408704001e+01
1.182507782180771727e+01 6.051154382959874622e-01 2.956750242367347164e+04 1.586065684698261435e+01
1.182235129793032158e+01 6.281991206955204188e-01 2.500299727673629968e+04 1.676539720704558434e+01
1.182302232140376752e+01 6.518974346889118143e-01 2.116939398355669982e+04 1.769583631419373049e+01
1.182680633495921896e+01 6.761936540714967858e-01 1.795016389934883045e+04 1.865270412989544369e+01
1.183343301446916840e+01 7.010600466468117631e-01 1.524172516519588135e+04 1.963675134984962156e+01
1.184257196192088379e+01 7.264851476978556599e-01 1.296108939771838959e+04 2.064874999293220625e+01
1.185387583461926830e+01 7.524494177455173238e-01 1.103802565804686310e+04 2.168949400687159468e+01
1.186739362572759049e+01 7.789373913536239424e-01 9.416714800950690915e+03 2.275979989112786583e+01
1.188253135872012045e+01 8.059150623933603041e-01 8.045011558306292500e+03 2.386050733746473895e+01
1.189923063493874444e+01 8.333745466071208474e-01 6.883757553205773547e+03 2.499247988871659132e+01
1.191726395910776759e+01 8.612997563956242830e-01 5.899372294502880322e+03 2.615660561626751601e+01
1.193636492166644913e+01 8.896676361815372136e-01 5.063559844303199498e+03 2.735379781677382738e+01
1.195640194010571911e+01 9.184553563180013480e-01 4.353165820101454301e+03 2.858499572867674132e+01
1.197712416656399625e+01 9.476467246246461640e-01 3.747519178978812306e+03 2.985116526906717738e+01
1.199838764439846805e+01 9.772265754994340359e-01 3.230919521750088279e+03 3.115329979148095063e+01
1.202004026138492243e+01 1.007166348756723506e+00 2.789425513545511421e+03 3.249242086521874029e+01
1.204187002090485237e+01 1.037455370774303720e+00 2.411510062922682664e+03 3.386957907680238122e+01
1.206379248621781208e+01 1.068065564732037842e+00 2.087687974542837765e+03 3.528585485419605305e+01
1.208567483521009578e+01 1.098979618676667158e+00 1.809729604832813493e+03 3.674235931443922709e+01
1.210737696107637618e+01 1.130182315001203808e+00 1.570571268050146955e+03 3.853616719481613018e+01
1.212888086275026112e+01 1.161675379441805100e+00 1.364746483183214195e+03 4.060876356718268454e+01
1.215017832183171365e+01 1.193439858883421190e+00 1.187162565875045402e+03 4.274023111666726038e+01
1.217115042312032003e+01 1.225450383339619753e+00 1.033982060896250459e+03 4.493224205284307970e+01
1.219175850646700177e+01 1.257670609358009894e+00 9.017475794713242294e+02 4.718651608365168926e+01
1.221188502489062522e+01 1.290080426619186094e+00 7.873123344902300005e+02 4.950482176457307304e+01
1.223148853475027842e+01 1.322653135435708505e+00 6.882227376566169141e+02 5.188897788611807016e+01
1.225043422230973711e+01 1.355355171272779380e+00 6.023485487176343440e+02 5.434085490073222502e+01
1.226865503196635387e+01 1.388163360089818221e+00 5.278364217553377102e+02 5.686237639022990464e+01
1.228609038493388894e+01 1.421049615267192534e+00 4.630809113905815479e+02 5.945552057491046583e+01
1.230267710733089004e+01 1.453997355719411244e+00 4.066555564731494314e+02 6.212232186554004443e+01
1.231828827125950632e+01 1.486965694214941847e+00 3.575317822733615003e+02 6.486487245941668789e+01
1.233292509737412246e+01 1.519941744992352017e+00 3.146814407954404942e+02 6.768532398177127618e+01
1.234649913787182562e+01 1.552897516805559652e+00 2.772549752975699562e+02 7.058588917379120176e+01
1.235889432341348559e+01 1.585799158703010026e+00 2.445127455942450752e+02 7.356884362859211990e+01
1.237013175206121929e+01 1.618633290109181999e+00 2.158490265032216371e+02 7.663652757649884961e+01
1.238012802692599301e+01 1.651332713501831417e+00 1.907568414862097654e+02 8.059422949252568458e+01
1.238881187796223138e+01 1.683808955278373265e+00 1.687916957229444108e+02 8.485105006916276693e+01
1.239622268108553804e+01 1.716041883336919982e+00 1.495480441587556584e+02 8.922878373889797388e+01
1.240223740485767401e+01 1.748001302469203599e+00 1.326606716124876471e+02 9.373086498430338054e+01
1.240686389093041697e+01 1.779683894071391492e+00 1.178092829985867098e+02 9.836082584289918884e+01
1.241010629610674165e+01 1.811045959484530732e+00 1.047516071244893112e+02 1.031222986781587281e+02
1.241187582652288413e+01 1.842079276555244949e+00 9.323667365099099413e+01 1.080190190292224059e+02
1.241219657559198808e+01 1.872755157357035127e+00 8.307771246863046599e+01 1.130548285415566738e+02
1.241101073978408564e+01 1.903069412718563003e+00 7.409719181266517296e+01 1.182336779808569389e+02
1.240826669687826822e+01 1.933002377839018182e+00 6.615094336471311465e+01 1.235596303325590668e+02
1.240396266704747319e+01 1.962514092806936672e+00 5.910865237681252182e+01 1.290368639893912075e+02
1.239810782422392244e+01 1.991593455541328606e+00 5.286740065229629693e+01 1.346696760294664443e+02
1.239047520984931339e+01 2.019989371250279664e+00 4.735792548522105960e+01 1.415236519216822728e+02
1.238041082953306393e+01 2.046799064462649032e+00 4.259501329131816760e+01 1.490365950916408622e+02
1.236727237250472555e+01 2.071982385859969522e+00 3.844676579597759769e+01 1.567629400671479800e+02
1.235090586154815462e+01 2.095547756230328851e+00 3.481174733873748295e+01 1.647087484314715198e+02
1.233111979404547753e+01 2.117571107037178102e+00 3.160310833303682543e+01 1.728802539444529600e+02
1.230796339781260507e+01 2.137847633205495868e+00 2.878512473693025342e+01 1.818547318328984659e+02
1.228006282778857816e+01 2.153385860831033227e+00 2.654907061468574270e+01 1.920950634352250859e+02
1.224489313798634882e+01 2.163214863279876887e+00 2.481823802153918379e+01 2.040668243962973065e+02
1.220162690229580527e+01 2.167507733428887473e+00 2.348094717628444172e+01 2.175652603753251810e+02
