# Radius[km]  Mass[Solar Mass] Lambda Central_pressure[MeV fm-3]
1.930502359123028100e+01 1.585338851086002254e-01 1.599165641086810641e+07 2.279243154945406413e+00
1.838028007106441564e+01 1.657895551588279281e-01 1.255080677087579109e+07 2.471171483849420092e+00
1.758765010691525177e+01 1.733552054843475465e-01 9.905674326434241608e+06 2.675076746597989441e+00
1.690271634602650153e+01 1.812363608581644969e-01 7.856290296477554366e+06 2.891085749242841896e+00
1.630595023092358886e+01 1.894492105633097667e-01 6.257248663646450266e+06 3.120187431200442507e+00
1.578330336074696305e+01 1.979936110877018041e-01 5.003206403127624653e+06 3.362443416474919733e+00
1.532271156789075484e+01 2.068833162012255755e-01 4.013358532016552519e+06 3.618696994819732726e+00
1.491516775394238614e+01 2.161285287984981707e-01 3.229611877993394155e+06 3.889421887240457121e+00
1.455277007155500080e+01 2.257385130474491020e-01 2.606141580018087290e+06 4.175024754032885532e+00
1.422988331527259476e+01 2.357210283900675329e-01 2.108737459562466945e+06 4.476504637830155175e+00
1.394106962628784885e+01 2.460885292206803909e-01 1.710384367624844890e+06 4.794194032653522619e+00
1.368177631966792696e+01 2.568728150108844366e-01 1.390353141259696567e+06 5.149047323194600345e+00
1.344600825503308883e+01 2.682749114768034904e-01 1.128934521997521631e+06 5.550863976534827771e+00
1.323279857563689710e+01 2.803321443874415841e-01 9.162435253004361875e+05 5.964102855078127874e+00
1.304127058428579389e+01 2.930333323306428817e-01 7.438245531543305842e+05 6.389088652257432166e+00
1.287017894059412448e+01 3.063596325802417919e-01 6.047079174417246832e+05 6.826155291390731961e+00
1.271800327901894789e+01 3.202858067365303985e-01 4.923007110157228308e+05 7.275646188053990215e+00
1.258324322785020932e+01 3.347969951074206696e-01 4.017211932774691377e+05 7.737914519912467703e+00
1.246430429300158593e+01 3.498775209817943654e-01 3.286033547213402926e+05 8.213323504222357130e+00
1.235969247927103964e+01 3.655112453303039910e-01 2.694779575234191725e+05 8.702246683220810297e+00
1.226802097132227765e+01 3.816846539999064758e-01 2.216349361288906366e+05 9.205068217628610938e+00
1.218786678968833215e+01 3.983860539949224955e-01 1.827778016305702913e+05 9.722183188496083872e+00
1.211815939548972132e+01 4.155963500776086450e-01 1.511615914480951324e+05 1.025399790762939212e+01
1.205767998453910828e+01 4.333011984626528035e-01 1.253600536935467098e+05 1.080093023684121611e+01
1.200555141650439772e+01 4.515009642414221092e-01 1.042557246715455840e+05 1.136340991627647057e+01
1.196070489112540791e+01 4.701650816257468279e-01 8.693648503862084181e+04 1.194187890207135361e+01
1.192246861363722132e+01 4.892983434772518181e-01 7.268415134555929399e+04 1.253679171361066658e+01
1.189008467133431957e+01 5.088831083979762360e-01 6.091998513757900946e+04 1.314861579065652464e+01
1.186289178507269604e+01 5.289106169139285996e-01 5.119108473506413429e+04 1.377783186062896270e+01
1.184021699120441973e+01 5.493647709104048094e-01 4.310703205042467744e+04 1.442493431632701117e+01
1.182157201669451574e+01 5.702362687816545650e-01 3.638618204242756474e+04 1.509043160438700859e+01
1.180643788284893070e+01 5.915185851531205019e-01 3.078384233299003608e+04 1.580285997115513652e+01
1.179455739389630153e+01 6.133431695964902675e-01 2.606284503899801712e+04 1.676554870185740853e+01
1.178591930380919273e+01 6.357955196550729715e-01 2.208624690996122808e+04 1.775560326568562175e+01
1.178029174711906713e+01 6.588413804691730657e-01 1.873323939765468458e+04 1.877380157641272618e+01
1.177754345453698370e+01 6.824665168733893283e-01 1.590858475041262136e+04 1.982094366114676731e+01
1.177744263034710670e+01 7.066446206983234557e-01 1.352718827436835818e+04 2.089785228893473956e+01
1.177976473472237018e+01 7.313585921968994707e-01 1.151842542920493906e+04 2.200537361723539931e+01
1.178420803139245621e+01 7.565809025595919834e-01 9.821900389418931809e+03 2.314437785676905790e+01
1.179058708892550200e+01 7.822935427699920785e-01 8.387516940704264925e+03 2.431575995526660350e+01
1.179864285083750630e+01 8.084835765543586517e-01 7.173367914475867110e+03 2.552044030065525959e+01
1.180816196782646621e+01 8.351155239035449318e-01 6.144582283586169069e+03 2.675936544423319319e+01
1.181898319875229397e+01 8.621822329485474556e-01 5.271450119830090443e+03 2.803350884440166624e+01
1.183075484288401746e+01 8.896575822568155711e-01 4.528471598349708984e+03 2.934387163153864719e+01
1.184347086503659874e+01 9.175185915427168659e-01 3.896250838389404180e+03 3.069148339461519726e+01
1.185682959123755253e+01 9.457547174643746724e-01 3.357179904304697629e+03 3.207740299017259389e+01
1.187074025363311414e+01 9.743342520002528095e-01 2.896895219017909767e+03 3.350271937429559443e+01
1.188505170589087889e+01 1.003244603153622405e+00 2.503237547860818722e+03 3.496855245823611114e+01
1.189942256886233451e+01 1.032464315782320341e+00 2.165754241042347076e+03 3.647605398835896295e+01
1.191395063026891599e+01 1.061965448906139420e+00 1.876391648408191031e+03 3.802640845110143175e+01
1.192850317695489792e+01 1.091752402092164953e+00 1.627704923912442837e+03 4.008014823864196075e+01
1.194290052950949033e+01 1.121816375400781274e+00 1.413531080413948530e+03 4.224018793146651518e+01
1.195719814149033766e+01 1.152145604295666370e+00 1.229072221777234290e+03 4.446162990718280383e+01
1.197135742356932298e+01 1.182700342911337410e+00 1.069989767740370553e+03 4.674621961535675752e+01
1.198521130685009162e+01 1.213453184561509524e+00 9.326427490693849904e+02 4.909575212250744158e+01
1.199871616896073689e+01 1.244378386243742751e+00 8.139698915603486284e+02 5.151207352254122895e+01
1.201176574158211174e+01 1.275459261201219441e+00 7.112438037753611297e+02 5.399708238727995280e+01
1.202423691918882653e+01 1.306654297306635959e+00 6.222574564264965602e+02 5.655273125822224500e+01
1.203610575322505127e+01 1.337956187300155309e+00 5.450012107179940131e+02 5.918102818071047722e+01
1.204725840067406750e+01 1.369323628375629376e+00 4.778889655354096817e+02 6.188403828170836363e+01
1.205758323153371236e+01 1.400732640753975300e+00 4.195263045343183990e+02 6.466388539242970523e+01
1.206707759442348049e+01 1.432172949594300526e+00 3.686942426831158741e+02 6.752275371709230001e+01
1.207564221708136998e+01 1.463608762125908180e+00 3.243428710900145120e+02 7.046288954910869506e+01
1.208319085324097841e+01 1.495010524766173576e+00 2.856276638319893095e+02 7.348660303606223465e+01
1.208967686493483384e+01 1.526338582554332080e+00 2.518080849904037279e+02 7.726737977128600221e+01
1.209505501441213937e+01 1.557512433336631252e+00 2.222756857123372072e+02 8.137964034284615877e+01
1.209930706298419523e+01 1.588509218642897736e+00 1.964529970341405658e+02 8.560879792689098622e+01
1.210243414664127215e+01 1.619307068522159332e+00 1.738494001379067697e+02 8.995817549172217298e+01
1.210428671087702668e+01 1.649896218809117077e+00 1.540076521624421275e+02 9.443119046586843979e+01
1.210491520442357860e+01 1.680226532024219122e+00 1.366027331840848831e+02 9.903135742325547142e+01
1.210424655886753875e+01 1.710294004121891920e+00 1.213018653903762498e+02 1.037622908447055607e+02
1.210225005517690811e+01 1.740085811069114197e+00 1.078113753362723486e+02 1.086277079579372895e+02
1.209888767482001448e+01 1.769561494274881408e+00 9.592557975482918664e+01 1.136314316582956820e+02
1.209412457111007910e+01 1.798716744967873371e+00 8.543269727999613394e+01 1.187773935125093203e+02
1.208794498145424079e+01 1.827522956998995252e+00 7.615980059203160124e+01 1.240696368478327827e+02
1.208026446505759388e+01 1.855933770646802206e+00 6.795933707357740161e+01 1.303304399286252249e+02
1.207098308915168161e+01 1.883694943017512502e+00 6.074128177938812456e+01 1.373742529969503323e+02
1.206005241351158475e+01 1.910772015952999503e+00 5.438583284165745368e+01 1.446182967388572251e+02
1.204737597601175558e+01 1.937135916509478362e+00 4.877481905450757438e+01 1.520682630036687613e+02
1.203286682808438002e+01 1.962849599329252737e+00 4.379481122732261866e+01 1.597300054398373845e+02
1.201653130917925516e+01 1.987844823610005918e+00 3.937878966905640254e+01 1.676095440943217056e+02
1.199835584630007546e+01 2.012137298842590738e+00 3.545113896935221476e+01 1.757130701427071244e+02
1.197831058412095651e+01 2.035752257486582284e+00 3.194502276677700081e+01 1.840469507537871436e+02
1.195638115086148368e+01 2.058592045966277873e+00 2.882524487814409397e+01 1.934859740915678117e+02
1.193246176376876022e+01 2.080255950960217426e+00 2.607337390387448650e+01 2.042524606643864615e+02
1.190620439890262006e+01 2.100590717542711872e+00 2.364904375991573815e+01 2.153250003419189795e+02
1.187740980832297666e+01 2.119657162240848436e+00 2.149499007933232519e+01 2.267122931306411147e+02
1.184603385732970970e+01 2.137442930029550769e+00 1.957958063097022716e+01 2.384232863474185251e+02
1.181203783516106753e+01 2.153948293171970896e+00 1.786844840735306050e+01 2.512878959166325501e+02
1.177540004013418340e+01 2.168727881873569796e+00 1.636487040913397806e+01 2.659124550129970999e+02
1.173563381025533303e+01 2.181560607838428645e+00 1.504308756676233116e+01 2.809527385600673597e+02
1.169249770453806825e+01 2.192519891022547185e+00 1.387305961731287063e+01 2.968756766153522904e+02
1.164600577610510790e+01 2.201444927639805371e+00 1.284117854631501032e+01 3.152085935729178914e+02
1.159596843325880222e+01 2.208291944726736844e+00 1.192945385028027694e+01 3.340626504692530148e+02
1.154224346425282555e+01 2.213128018981323830e+00 1.111904861150224022e+01 3.551885760148533109e+02
1.148484834315777370e+01 2.215969097536023114e+00 1.039657921998884582e+01 3.778816679552678011e+02
1.142381676307054583e+01 2.216939812979673352e+00 9.748459955296993940e+00 4.020969859242968028e+02
