# Radius[km]  Mass[Solar Mass] Lambda Central_pressure[MeV fm-3]
1.891732417202371863e+01 1.670406068136377209e-01 1.387196741331923194e+07 2.183261130691448670e+00
1.805410257835182364e+01 1.755528688530134940e-01 1.077690636599007435e+07 2.366369775174442136e+00
1.732395509569301950e+01 1.843775312270205802e-01 8.435558424472592771e+06 2.560802964064554210e+00
1.670045443561610554e+01 1.935080715701663623e-01 6.647066865992937237e+06 2.767297278797155702e+00
1.616318245357476968e+01 2.029380200552396984e-01 5.268208583567457274e+06 2.986712352365029854e+00
1.569709081550687202e+01 2.126537780816140644e-01 4.200217339215507731e+06 3.219574368437547296e+00
1.528957113837192949e+01 2.226575390769890972e-01 3.364393241542831529e+06 3.466879820617539298e+00
1.493124837735548915e+01 2.329314526820199238e-01 2.708084284049690235e+06 3.729447092291726662e+00
1.461441433960738401e+01 2.434730770492821716e-01 2.189816779404802248e+06 4.008097751671366282e+00
1.433263181834963085e+01 2.542708419694185151e-01 1.778098500988551183e+06 4.303904841158784578e+00
1.408086398015596252e+01 2.653199465085159248e-01 1.449472909862833098e+06 4.618037118300370558e+00
1.385475588549610748e+01 2.766029096576919089e-01 1.186131490566673456e+06 4.951619241324499043e+00
1.365042624562635432e+01 2.881397268642563181e-01 9.737142171371977311e+05 5.327092791448102993e+00
1.346113967546672718e+01 3.003243969671414160e-01 7.976989569351128303e+05 5.754910804099850452e+00
1.328693491037221897e+01 3.132488967155906412e-01 6.519289125883749221e+05 6.195355539408163636e+00
1.312822064317351867e+01 3.268995891775768881e-01 5.322491114093429642e+05 6.648799665470980891e+00
1.298489520962428934e+01 3.412502277840965270e-01 4.345243182182054152e+05 7.115626849401222032e+00
1.285635777342290709e+01 3.562762455201436973e-01 3.550616269063428626e+05 7.596232081954259918e+00
1.274160439712396986e+01 3.719628917980155047e-01 2.905301282456464833e+05 8.091022011736672681e+00
1.263981650424589276e+01 3.882830539998028963e-01 2.381410537872518471e+05 8.600415289278792841e+00
1.254977855896525263e+01 4.052280632437670893e-01 1.955767465007680876e+05 9.124842921262358075e+00
1.247072613764179039e+01 4.227713183467712854e-01 1.610322533766459092e+05 9.664748635202890625e+00
1.240146357002663002e+01 4.409002513893107711e-01 1.328982690169993730e+05 1.022058925489543846e+01
1.234107878794276658e+01 4.595969361745906312e-01 1.099515750738796341e+05 1.079283508694125082e+01
1.228869185599053893e+01 4.788399377505004328e-01 9.123173626849382708e+04 1.138197031868256559e+01
1.224354746656565318e+01 4.986232505637859802e-01 7.584087959687350667e+04 1.198849342788209782e+01
1.220480065439862472e+01 5.189244313517896723e-01 6.322311805026466027e+04 1.261291760449389265e+01
1.217176406436826142e+01 5.397332635735523354e-01 5.283160735357123485e+04 1.325577118488242512e+01
1.214381410062596345e+01 5.610336683337299180e-01 4.425550263824872673e+04 1.391759809885743948e+01
1.212038886168077489e+01 5.828118190176676539e-01 3.715416237598381849e+04 1.459895832990249964e+01
1.210092121154220202e+01 6.050556913725020358e-01 3.126066594472719953e+04 1.530042838898702229e+01
1.208496796364076253e+01 6.277517427457175447e-01 2.635923033076907450e+04 1.602260180236241993e+01
1.207210743389752849e+01 6.510004937499236366e-01 2.225405986491753720e+04 1.700573103895659344e+01
1.206247295804013575e+01 6.750043584923776097e-01 1.878982269482383344e+04 1.806248896519152325e+01
1.205602001588539984e+01 6.997365308624079461e-01 1.587320129177790295e+04 1.915043629639561829e+01
1.205265999824304934e+01 7.251616603300699015e-01 1.342291085454549648e+04 2.027049356409092340e+01
1.205213278288300494e+01 7.512587526841338903e-01 1.136112784190621096e+04 2.142360846858603196e+01
1.205421584251077682e+01 7.779938464934247344e-01 9.627431126970186597e+03 2.261075668084197687e+01
1.205874581729050199e+01 8.053452733051315038e-01 8.169783819850170403e+03 2.383294266800475114e+01
1.206539969546210500e+01 8.332856236337820022e-01 6.941927089052233896e+03 2.509120054330281135e+01
1.207402003256402345e+01 8.617909026265236916e-01 5.907614242985140663e+03 2.638659494102859071e+01
1.208422440739921200e+01 8.908215502553616938e-01 5.034512866139848484e+03 2.772022191734438579e+01
1.209591194549193460e+01 9.203633683082581562e-01 4.297350905947319916e+03 2.909320987767501876e+01
1.210876641136058751e+01 9.503872356656482001e-01 3.673122478108256473e+03 3.050672053147159346e+01
1.212272602774606867e+01 9.808661960273099556e-01 3.144794581946812286e+03 3.196194987515441355e+01
1.213744989797396379e+01 1.011770222255060192e+00 2.696449934950803708e+03 3.346012920406688806e+01
1.215271334313768747e+01 1.043075773535586226e+00 2.315209791740810033e+03 3.500252615429622693e+01
1.216846691075359743e+01 1.074760479168128224e+00 1.990840614582165244e+03 3.659044577524282005e+01
1.218452483132121955e+01 1.106794452693754982e+00 1.714428585843828159e+03 3.822523163384576605e+01
1.220060835194372473e+01 1.139151805583528132e+00 1.478317978384587832e+03 3.990826695139855218e+01
1.221667416492196345e+01 1.171810626071606798e+00 1.276416676861985025e+03 4.164097577391716243e+01
1.223255973332493873e+01 1.204724334847088185e+00 1.103630613435556597e+03 4.397525647928547698e+01
1.224822975419886895e+01 1.237883806813238285e+00 9.555152886820245612e+02 4.642342298932213396e+01
1.226363287605048491e+01 1.271233417015104727e+00 8.285104253392919418e+02 4.894384526845949779e+01
1.227859168253978872e+01 1.304749848872917228e+00 7.193598296181173737e+02 5.153865589066550967e+01
1.229307975646480955e+01 1.338400704997724899e+00 6.254672865447412278e+02 5.421005037120373515e+01
1.230690837113047031e+01 1.372159494311638417e+00 5.445715729024281018e+02 5.696028902429775798e+01
1.232004977114404021e+01 1.405989610499946307e+00 4.747831202317353245e+02 5.979169887562331809e+01
1.233241688218079801e+01 1.439867926391217079e+00 4.144675892250788820e+02 6.270667563124573007e+01
1.234386971332395255e+01 1.473754133466674165e+00 3.622710028557968940e+02 6.570768570466937319e+01
1.235440675366170105e+01 1.507631806607381497e+00 3.170469716491799659e+02 6.879726830371382107e+01
1.236385917269825541e+01 1.541463780901173752e+00 2.777959801981137957e+02 7.197803757898272181e+01
1.237221777898277253e+01 1.575230197909371466e+00 2.436757206483520122e+02 7.525268483574284062e+01
1.237936361100775073e+01 1.608888471268300702e+00 2.139959972607777843e+02 7.862398081108509018e+01
1.238527231992039646e+01 1.642429408976199268e+00 1.881235316073486672e+02 8.209477801829454791e+01
1.238978229928763852e+01 1.675654493277550783e+00 1.656444312376649179e+02 8.662844940669339167e+01
1.239259518201799004e+01 1.708355092666481001e+00 1.461404769636990011e+02 9.137940635599782979e+01
1.239364050323969124e+01 1.740481389134976409e+00 1.291935738779822032e+02 9.627058417954800973e+01
1.239279125187144004e+01 1.772044428123468851e+00 1.144168824052064082e+02 1.013061213896024668e+02
1.239002672869643540e+01 1.803028835343638780e+00 1.014865521114469686e+02 1.064902786434554685e+02
1.238530304132977378e+01 1.833431745087690468e+00 9.015655671721701481e+01 1.118274423484549800e+02
1.237850939398118122e+01 1.863234323536616222e+00 8.020138889602159793e+01 1.173221283734194174e+02
1.236967659084764648e+01 1.892421915217366468e+00 7.143887473176097558e+01 1.229789858695943394e+02
1.235876095257521712e+01 1.921018962919134543e+00 6.370301298445832572e+01 1.288028012043818080e+02
1.234574471242171967e+01 1.948885561159791502e+00 5.688928965721566300e+01 1.357511180423321662e+02
1.233035864214661714e+01 1.975622805149024774e+00 5.093306226118071578e+01 1.434470618761177718e+02
1.231235286439935095e+01 2.001191777613681833e+00 4.570768576579420284e+01 1.513701456280365392e+02
1.229170109291352730e+01 2.025624287221113651e+00 4.110778990394862831e+01 1.595270731596972951e+02
1.226821999515884620e+01 2.048914290529370685e+00 3.703539107582913203e+01 1.679247461920757871e+02
1.224197516829261190e+01 2.071110428493936784e+00 3.342467672597547335e+01 1.765702701451834287e+02
1.221294211200934043e+01 2.092165637993963490e+00 3.021295832625507316e+01 1.864289722699607523e+02
1.218108570294225146e+01 2.111753303728678421e+00 2.738640294963163768e+01 1.974990766410628282e+02
1.214615616901003392e+01 2.129796962855272646e+00 2.488729365985903641e+01 2.088959067075292921e+02
1.210802169971992370e+01 2.146389718198844054e+00 2.266546636356114774e+01 2.206291055293019383e+02
1.206664645709440364e+01 2.161526158788512841e+00 2.068304387140336686e+01 2.329293516841706833e+02
1.202220586917851897e+01 2.175062180924016708e+00 1.892423606006545000e+01 2.475936429356443398e+02
1.197450178975682888e+01 2.186843393202451136e+00 1.736403519713153543e+01 2.626907395695743048e+02
1.192336365263053288e+01 2.196899758343284770e+00 1.597309983259788169e+01 2.782334155070361135e+02
1.186885499867848992e+01 2.205235654758953334e+00 1.473150656014570004e+01 2.961238019269591177e+02
1.181105394011268039e+01 2.211647530798209971e+00 1.363183891990529872e+01 3.151799333706535435e+02
1.174966869065399599e+01 2.216153393182071163e+00 1.265115104395636436e+01 3.351191361897739966e+02
1.168505301296109167e+01 2.218724401733404239e+00 1.178054561282329793e+01 3.581213824628783300e+02
1.161695105433844866e+01 2.219239603257328497e+00 1.100871520155721761e+01 3.818025225075846834e+02
