# Radius[km]  Mass[Solar Mass] Lambda Central_pressure[MeV fm-3]
1.894433474970563225e+01 1.675691580697478145e-01 1.386494460161049291e+07 2.174115691063570388e+00
1.807493307191521481e+01 1.761168821008705920e-01 1.075201533489122801e+07 2.364100021353971126e+00
1.734137718812467099e+01 1.849214599626555489e-01 8.407495888977447525e+06 2.567033707908671580e+00
1.671560084540489655e+01 1.939666849364998780e-01 6.624708036374809220e+06 2.783807551199918962e+00
1.617705543116813161e+01 2.032289073930085843e-01 5.254864717887626030e+06 3.015467718395030250e+00
1.570915951096816876e+01 2.126918330970821724e-01 4.194607037596210837e+06 3.263124950269329805e+00
1.529971881588000926e+01 2.223291662072424679e-01 3.369302593450363260e+06 3.527958057408744352e+00
1.493861230560056796e+01 2.321160682581740464e-01 2.721046089218639769e+06 3.811500867088612132e+00
1.461821085970387379e+01 2.420182641204551566e-01 2.211170355854790658e+06 4.115424167609169182e+00
1.433200430227228495e+01 2.519891003627191539e-01 1.806664746287449962e+06 4.441342569823079067e+00
1.407508704455121595e+01 2.619732197231171567e-01 1.485083146410298534e+06 4.791701072382854143e+00
1.384339261259535370e+01 2.718705122312415345e-01 1.228778054057290079e+06 5.169515947677313150e+00
1.363410301938439773e+01 2.815268491909090343e-01 1.025150260968053131e+06 5.579006068360732762e+00
1.344694340892119833e+01 2.905784863200476242e-01 8.658736791074807988e+05 6.028467093675776489e+00
1.327209841048343897e+01 2.991507680801414049e-01 7.370361919625709997e+05 6.579204938679866110e+00
1.309304298367629116e+01 3.086242701513973730e-01 6.197330368820752483e+05 7.154051072165096947e+00
1.291601199935240274e+01 3.190694518064770557e-01 5.161501576315315324e+05 7.746396544383776117e+00
1.274518545836411043e+01 3.305005171446592782e-01 4.268644254137678072e+05 8.356774066331523088e+00
1.258331676698171897e+01 3.428745077602111113e-01 3.513404396827479359e+05 8.985732565674199535e+00
1.243216822591447190e+01 3.561904976457657690e-01 2.882938249222720624e+05 9.633837680412106863e+00
1.229272925181190601e+01 3.704014032592941597e-01 2.361977465062126867e+05 1.030167226757233223e+01
1.216525356747081332e+01 3.854849171194657531e-01 1.934586677144714922e+05 1.098983692738655549e+01
1.204977181369834049e+01 4.014053442027095686e-01 1.585032077790204203e+05 1.169895054342575236e+01
1.194581576265204959e+01 4.181354258244953659e-01 1.300140216816270695e+05 1.242965083917754399e+01
1.185286356273240926e+01 4.356450716179506299e-01 1.068250575324270321e+05 1.318259495156676664e+01
1.177026938508466003e+01 4.539024909567533350e-01 8.794783021729828033e+04 1.395846002193508362e+01
1.169726034947163740e+01 4.728820654807746049e-01 7.256613875378844386e+04 1.475794380501092995e+01
1.163312291106247720e+01 4.925530212165686317e-01 6.001656620539755386e+04 1.558176529641771779e+01
1.157696513913865211e+01 5.128998105124021878e-01 4.974430417686640430e+04 1.643066537928448767e+01
1.152815173629534584e+01 5.338891184007867885e-01 4.133169152137340279e+04 1.730540749054043559e+01
1.148592866237625287e+01 5.554976346829983980e-01 3.442192926014384284e+04 1.820677830749273696e+01
1.144962821137647957e+01 5.777077460627497718e-01 2.872880410384628340e+04 1.917667620633589110e+01
1.141866408184689163e+01 6.007665737298423236e-01 2.398603565841342788e+04 2.045020662320084170e+01
1.139310428712982848e+01 6.248117437420520615e-01 2.002227297155478300e+04 2.176250557107590211e+01
1.137293355128333516e+01 6.498050182676003983e-01 1.671758406278934854e+04 2.311475323299934104e+01
1.135796085374575703e+01 6.756998801120861486e-01 1.397116299923280530e+04 2.450816571888015361e+01
1.134784833786615188e+01 7.024784348110302279e-01 1.168693941380218530e+04 2.594399615917601309e+01
1.134233554698864488e+01 7.301043327136274019e-01 9.788566401627673258e+03 2.742353583186453747e+01
1.134098009033105647e+01 7.585294046121995315e-01 8.209348834551712571e+03 2.894811532372166596e+01
1.134344554179056175e+01 7.877288937109487854e-01 6.895774905276031859e+03 3.051910572695138768e+01
1.134937751111944593e+01 8.176684967296112827e-01 5.802094406806602819e+03 3.213791987224308855e+01
1.135841973875025701e+01 8.483139269205612898e-01 4.889616891428499002e+03 3.380601359936512296e+01
1.137025007443135394e+01 8.796420230710010335e-01 4.127719949175091642e+03 3.552488706643785576e+01
1.138453247203181640e+01 9.116077304507316237e-01 3.490615579881505710e+03 3.729608609906301808e+01
1.140096362354603876e+01 9.441849202235209626e-01 2.956912933217133286e+03 3.912120358052306557e+01
1.141925843493147141e+01 9.773388894948841221e-01 2.509162989098211710e+03 4.100188088430069655e+01
1.143912641506791417e+01 1.011040296859162302e+00 2.132504631396326204e+03 4.293980935020686474e+01
1.146033875949783187e+01 1.045251118041189864e+00 1.815773878044395587e+03 4.493673180544450929e+01
1.148267217509309468e+01 1.079946395319629771e+00 1.548186250570945049e+03 4.699444413197649340e+01
1.150586174282028651e+01 1.115088773509908648e+00 1.322246381038525897e+03 4.911479688160684276e+01
1.152976555041004048e+01 1.150641519459722817e+00 1.131149413735100325e+03 5.129969694022787507e+01
1.155404238814363183e+01 1.186575279297414465e+00 9.690641354542697172e+02 5.355110924273012074e+01
1.157865221412815515e+01 1.222860985888623908e+00 8.314192463322746107e+02 5.587105854011697659e+01
1.160339167139578187e+01 1.259463926838014780e+00 7.142757284769130592e+02 5.829236389098043247e+01
1.162804534725439787e+01 1.296228347245111268e+00 6.148501564381618891e+02 6.153960161909307658e+01
1.165220662058265333e+01 1.333036417499763093e+00 5.303631983217969719e+02 6.488569103923627779e+01
1.167588914080477913e+01 1.369849624576979119e+00 4.583192163007731210e+02 6.833364137273464678e+01
1.169885444209446135e+01 1.406635726051950641e+00 3.968456238589189411e+02 7.188655344696211102e+01
1.172102116220592194e+01 1.443368274791467121e+00 3.442224069058545979e+02 7.554762248399296709e+01
1.174227860178609717e+01 1.480020667432282000e+00 2.990727058783799066e+02 7.932014097414459286e+01
1.176250881926917735e+01 1.516554879621928364e+00 2.602858846142628408e+02 8.320750163699572965e+01
1.178163444552082595e+01 1.552953178919502575e+00 2.268750615805468840e+02 8.721320047254339158e+01
1.179954332267649519e+01 1.589179343825634305e+00 1.980272600990746241e+02 9.134083990524251817e+01
1.181618088939788436e+01 1.625204232738467480e+00 1.730938939022272791e+02 9.559413202375586138e+01
1.183148713114052697e+01 1.661016055059567620e+00 1.515079854813525628e+02 9.997690191932736070e+01
1.184536184193103914e+01 1.696566996673633421e+00 1.327737210761864048e+02 1.044930911257818167e+02
1.185778163319289469e+01 1.731846475426440435e+00 1.164973400086649917e+02 1.091467611642442392e+02
1.186858468772066999e+01 1.766735766445422406e+00 1.023599747468969667e+02 1.145798987896841510e+02
1.187732127248038339e+01 1.800740898543933932e+00 9.019219555151501311e+01 1.208666422225116293e+02
1.188362576507288892e+01 1.833747325955373819e+00 7.969401583803391986e+01 1.273447653071328176e+02
1.188740595706138237e+01 1.865759641236690136e+00 7.058578536848139606e+01 1.340200939805388884e+02
1.188857129595665896e+01 1.896797949035341269e+00 6.265972257624663655e+01 1.408986315316055027e+02
1.188707231851140556e+01 1.926855977184501523e+00 5.572773029066286909e+01 1.479865639999990776e+02
1.188289635033185299e+01 1.955965253946224225e+00 4.965088756454401420e+01 1.552902657394358812e+02
1.187599060589780819e+01 1.984122007030250989e+00 4.430500829071655744e+01 1.628163051502972110e+02
1.186627568745534234e+01 2.011062768034877823e+00 3.962803640553747897e+01 1.721170672942746762e+02
1.185326563393730126e+01 2.036364227018392370e+00 3.556500332516612417e+01 1.818717865537957721e+02
1.183675148845787639e+01 2.060054081682081595e+00 3.200966840716172612e+01 1.919234568174700826e+02
1.181668426334358912e+01 2.082188060168203680e+00 2.888192169115616537e+01 2.022811178020254772e+02
1.179298012157913789e+01 2.102791640256394423e+00 2.611851107644864101e+01 2.131685086954415738e+02
1.176563487086913007e+01 2.121618736846928588e+00 2.369109756010473333e+01 2.261939419591598721e+02
1.173441289660638809e+01 2.138482065834080625e+00 2.156178497443575637e+01 2.396158925786610041e+02
1.169910347904303727e+01 2.153438455366575965e+00 1.968185145588411800e+01 2.534464312475073484e+02
1.165971698799174128e+01 2.166525133972197814e+00 1.801268220454921476e+01 2.691679130545772978e+02
1.161631940707856891e+01 2.177670856838932689e+00 1.653292481673209124e+01 2.862347955770908925e+02
1.156891489209633939e+01 2.186955797312673422e+00 1.521507034419764004e+01 3.038212243590093067e+02
1.151750555231476447e+01 2.194453965003761109e+00 1.403329749780998092e+01 3.236428554437089247e+02
1.146245833400579706e+01 2.200262842010068720e+00 1.297242261228018378e+01 3.451120973693398923e+02
1.140351986742235368e+01 2.204396510626078332e+00 1.201387645003529769e+01 3.672349012047106953e+02
1.134106137448871188e+01 2.206977187211552671e+00 1.114634142344297985e+01 3.926680014127577465e+02
1.127527406803415566e+01 2.208060070192091828e+00 1.035972257347726000e+01 4.194733454782684134e+02
