# Radius[km]  Mass[Solar Mass] Lambda Central_pressure[MeV fm-3]
1.895543179077797902e+01 1.622019763681044890e-01 1.460364079382024892e+07 2.249192839793247689e+00
1.802535076946658066e+01 1.707540217129527027e-01 1.123851156997757964e+07 2.434787995112540848e+00
1.724257844306066900e+01 1.797283189566334094e-01 8.707408016388505697e+06 2.630890144675139819e+00
1.657907338146745957e+01 1.891139433254811764e-01 6.790169927883218043e+06 2.837988366723589895e+00
1.601233817749248800e+01 1.989018663532594322e-01 5.326917736151543446e+06 3.056601479500405283e+00
1.552477712877888116e+01 2.091013719347897815e-01 4.200075869015979581e+06 3.287279199123557483e+00
1.510323861169982074e+01 2.196962422470994936e-01 3.329711407194950152e+06 3.530603321481202705e+00
1.473694923970677273e+01 2.306876706023064660e-01 2.651749517195769120e+06 3.787188927573069908e+00
1.441693612319892637e+01 2.420706279114826220e-01 2.120789011273665819e+06 4.057685611458448527e+00
1.413651991643686934e+01 2.538432428698593202e-01 1.704875816217113752e+06 4.342778729694436457e+00
1.388966542734914178e+01 2.660010089120335985e-01 1.374320814946945291e+06 4.643209431322345537e+00
1.367194912042858235e+01 2.785353736288286863e-01 1.112706454841218656e+06 4.960513349452583043e+00
1.347921038123144122e+01 2.914469297003545178e-01 9.042979104434208712e+05 5.294847057048539973e+00
1.330786366413403599e+01 3.047295910426480181e-01 7.374329912276220275e+05 5.647067223258809499e+00
1.315560557784955797e+01 3.183673024849069111e-01 6.034997539463897701e+05 6.018073231441537274e+00
1.301973910786264632e+01 3.323585420133531310e-01 4.955395468368328875e+05 6.408808501880892017e+00
1.289815187204822777e+01 3.466935589484960722e-01 4.081620690174602787e+05 6.821657922530101281e+00
1.278920140004839823e+01 3.613641552950593305e-01 3.372430461476906785e+05 7.256809242557539008e+00
1.269132019731380545e+01 3.763479355794687731e-01 2.795368726847067010e+05 7.715056859468471195e+00
1.260310527972182548e+01 3.916382352886635942e-01 2.323773226102745102e+05 8.199535117504659354e+00
1.252339524025641282e+01 4.072020145433503102e-01 1.937786547816916718e+05 8.710293503072687571e+00
1.245117191312668226e+01 4.230235742802505583e-01 1.620667171224913618e+05 9.250113203736129108e+00
1.238532741673818194e+01 4.390692424373864866e-01 1.359628443558252766e+05 9.819814299681477010e+00
1.232506001006584739e+01 4.553041891796379415e-01 1.144185143628809747e+05 1.042350350848650109e+01
1.226955040762977589e+01 4.716813283257395018e-01 9.659701277632430720e+04 1.106223240431504884e+01
1.221805049159738488e+01 4.881300824913495928e-01 8.183008023883972783e+04 1.173936860495074797e+01
1.216983146631867996e+01 5.045605062479117109e-01 6.958758677116659237e+04 1.245856200113585111e+01
1.212414971196596092e+01 5.208516007144544657e-01 5.943466013410295272e+04 1.322532254080998015e+01
1.208004282563810960e+01 5.368680028521986003e-01 5.101002669157625496e+04 1.408970873303547044e+01
1.203660791969093680e+01 5.532817372943379386e-01 4.373295402847926016e+04 1.503840923467392976e+01
1.199441681482451116e+01 5.702281708117209469e-01 3.744854378038804862e+04 1.601484659868015470e+01
1.195392239725674344e+01 5.876970051088372671e-01 3.203349880587805092e+04 1.701983175909776591e+01
1.191500504265415650e+01 6.056074566397173786e-01 2.740189319996008271e+04 1.805419935899756823e+01
1.187811437075367849e+01 6.240365063782417065e-01 2.343437081390315507e+04 1.911880844365101240e+01
1.184306577197471810e+01 6.429144601494150013e-01 2.004788639438699101e+04 2.021454317396975853e+01
1.180981383769199766e+01 6.622312322309009680e-01 1.715722553795190834e+04 2.134231356080381659e+01
1.177823612197636649e+01 6.819639483564903237e-01 1.469506667469478452e+04 2.250305622070825251e+01
1.174821853861849874e+01 7.020962069886098611e-01 1.259392509173275539e+04 2.369773515380590823e+01
1.171960052458726942e+01 7.226100421201906432e-01 1.080217685581200749e+04 2.492734254439224273e+01
1.169222348758171393e+01 7.435126275356755965e-01 9.270328195197007517e+03 2.631962809725563091e+01
1.166621224966513992e+01 7.651087016915073535e-01 7.947593587962237507e+03 2.797607741121275637e+01
1.164194662863559238e+01 7.874858492163092638e-01 6.805615030450012455e+03 2.968095582008554700e+01
1.161959467362990495e+01 8.106049891102081739e-01 5.823417424710251908e+03 3.143567923030380129e+01
1.159928087341434022e+01 8.344237344977429860e-01 4.981867462377529591e+03 3.324170494471461978e+01
1.158096745461398314e+01 8.589194559809554264e-01 4.262451916519859878e+03 3.510053287287646384e+01
1.156457395436548197e+01 8.840463301536849450e-01 3.647651191166894478e+03 3.701370677673840248e+01
1.155006199889497509e+01 9.097807726715466670e-01 3.123181754639043447e+03 3.898281555273897681e+01
1.153722182903091920e+01 9.360652702126562863e-01 2.676231174374802777e+03 4.100949455138904653e+01
1.152595065040871170e+01 9.628707663008674311e-01 2.295241312380405361e+03 4.309542693543533431e+01
1.151605719907234082e+01 9.901648816102134321e-01 1.970289635655071606e+03 4.524234507773172709e+01
1.150743660358624787e+01 1.017918881798476782e+00 1.693091194629566189e+03 4.745203199998012167e+01
1.149989801625543606e+01 1.046081863201616668e+00 1.456506388136410351e+03 4.972632285353493131e+01
1.149323339834422164e+01 1.074630767199325376e+00 1.254314666850787262e+03 5.206710644350160777e+01
1.148728376008122254e+01 1.103514677522392740e+00 1.081601803137863271e+03 5.472785429194155427e+01
1.148213974707613616e+01 1.132823130050979454e+00 9.332813155980884403e+02 5.785217247831822363e+01
1.147776096305081417e+01 1.162505228438151850e+00 8.061980926113826627e+02 6.106783538663705002e+01
1.147397952797816068e+01 1.192525416046621656e+00 6.970325069117660632e+02 6.437751363420686346e+01
1.147080954865850799e+01 1.222847681283720123e+00 6.035047179367099943e+02 6.778395591834645018e+01
1.146803867447819592e+01 1.253428530782303429e+00 5.229866679673341423e+02 7.128999129918588551e+01
1.146563120354113430e+01 1.284233586609961675e+00 4.538382875938363554e+02 7.489853154920878353e+01
1.146340919466712549e+01 1.315226736869106405e+00 3.942923603295393491e+02 7.861257357148804203e+01
1.146133024644242937e+01 1.346361430419006133e+00 3.429918379346536881e+02 8.243520188862228792e+01
1.145922740595264955e+01 1.377609393607460708e+00 2.987560308751312164e+02 8.636959120444076632e+01
1.145695912083739820e+01 1.408927699770943898e+00 2.605347148208609269e+02 9.041900904060420885e+01
1.145449297161584035e+01 1.440293975487058287e+00 2.274755292503193971e+02 9.458681845029072122e+01
1.145173100781595643e+01 1.471659693194109053e+00 1.988683744837657343e+02 9.887648081122144106e+01
1.144848072941261385e+01 1.502942922442212170e+00 1.740839860532524881e+02 1.042357251901282638e+02
1.144467917043883531e+01 1.534008594155768179e+00 1.526661246317951282e+02 1.098987931063396672e+02
1.144022187168358862e+01 1.564829235789588102e+00 1.341061074366038497e+02 1.157274303830603941e+02
1.143503237976876896e+01 1.595368214996422562e+00 1.179920292561186841e+02 1.217264777203394033e+02
1.142899433230103590e+01 1.625609659114100491e+00 1.039756187576877409e+02 1.279009173442719174e+02
1.142209861754841427e+01 1.655527678871596908e+00 9.175865540595560788e+01 1.342558771447524180e+02
1.141413121510209372e+01 1.685116089849540533e+00 8.108148915634322407e+01 1.407966349342020465e+02
1.140517301085108137e+01 1.714323688930589507e+00 7.173881217245578057e+01 1.475286228308070804e+02
1.139510328192833732e+01 1.743147293569073941e+00 6.355894866000796384e+01 1.544574317699085952e+02
1.138390740439175275e+01 1.771554818712451018e+00 5.637811016551751209e+01 1.621133451937483585e+02
1.137142527308876438e+01 1.799296126039814814e+00 5.010387931408356366e+01 1.710976001787280154e+02
1.135760958771418139e+01 1.826285842530666503e+00 4.462764815149889586e+01 1.803445250406231537e+02
1.134217651179862330e+01 1.852532245832533730e+00 3.981546202535280798e+01 1.898617993771694614e+02
1.132523401175755673e+01 1.878033509310754745e+00 3.558444311589577325e+01 1.996573273121199179e+02
1.130662877338354555e+01 1.902763169488842498e+00 3.185405692892195262e+01 2.097392440596428003e+02
1.128638564367011909e+01 1.926747497875283432e+00 2.855452839687755429e+01 2.201159226806401250e+02
1.126441689999962037e+01 1.949954189671859739e+00 2.563208338631509520e+01 2.315946896997332090e+02
1.124074897727477307e+01 1.972193844659314355e+00 2.305566121658006651e+01 2.447911330216738293e+02
1.121525113580353228e+01 1.993400768297926895e+00 2.077887051822125031e+01 2.583733966647088209e+02
1.118784336373685662e+01 2.013590531629335434e+00 1.876285014774941118e+01 2.723527607379203346e+02
1.115846717046312087e+01 2.032770068000566255e+00 1.697076968595301238e+01 2.867408351434414726e+02
1.112712085796167472e+01 2.050986471396596844e+00 1.537044720938270714e+01 3.015495692185144776e+02
1.109384424499062227e+01 2.068132739540853748e+00 1.394690208808409970e+01 3.194627030731101058e+02
1.105861142276506470e+01 2.084099114790315177e+00 1.268167823897539570e+01 3.380005254284781131e+02
1.102131700874626219e+01 2.098898090154386331e+00 1.155330416373716496e+01 3.570803323473411410e+02
1.098189669084396947e+01 2.112551150121799282e+00 1.054266448944227008e+01 3.767179696643098055e+02
1.094042151951260777e+01 2.125110520863941144e+00 9.635670429007120674e+00 3.988409436283133118e+02
1.089693673787442130e+01 2.136406996474728093e+00 8.824936961868482754e+00 4.231079910077796740e+02
1.085144230725843073e+01 2.146489315710327084e+00 8.098419836781147296e+00 4.480845265260990118e+02
1.080376603708664973e+01 2.155348065614646647e+00 7.445234266359815223e+00 4.737912932679686833e+02
1.075411604096513152e+01 2.163028202744238015e+00 6.856330574119375854e+00 5.037838072457658427e+02
1.070245608444878904e+01 2.169414616305449961e+00 6.328054122966049633e+00 5.352102143196037787e+02
1.064874276297050670e+01 2.174553516997322689e+00 5.851517135997112540e+00 5.675554255115112028e+02
1.059300754332126715e+01 2.178462059223155389e+00 5.421195517976467926e+00 6.041049924823443007e+02
1.053550046338078161e+01 2.181136555524604059e+00 5.033338497246274024e+00 6.432708826726392317e+02
1.047597619701107519e+01 2.182522265545838724e+00 4.683159891094325289e+00 6.835818538488121021e+02
1.041465491897303508e+01 2.182657726337114745e+00 4.366775842615600922e+00 7.301883915112294972e+02
