# Radius[km]  Mass[Solar Mass] Lambda Central_pressure[MeV fm-3]
1.906525855607862852e+01 1.626334255334520862e-01 1.480533652193264849e+07 2.234361810955145078e+00
1.820513176973807745e+01 1.702664004475181736e-01 1.166760214437713847e+07 2.409818851688603214e+00
1.746840072090500229e+01 1.782265863931244421e-01 9.244385869835235178e+06 2.594999632249438193e+00
1.683223260217545914e+01 1.865194630970603562e-01 7.361781333406486548e+06 2.790539398908798319e+00
1.627882849106557117e+01 1.951571388105935168e-01 5.887253720989584923e+06 2.996596155065497147e+00
1.579517576082142938e+01 2.041356901320864337e-01 4.726869029217936099e+06 3.213571523999673829e+00
1.537010531465143792e+01 2.134658461759956216e-01 3.809247144179561175e+06 3.441881642280742781e+00
1.499508822592123103e+01 2.231485122199144133e-01 3.080235248072685208e+06 3.681958385487217100e+00
1.466269447257804792e+01 2.331959311112394573e-01 2.498439276913647074e+06 3.934676876651933330e+00
1.436729608249438073e+01 2.436097165001296083e-01 2.032518554597264389e+06 4.200133299975118639e+00
1.410429082419362246e+01 2.543926780804117160e-01 1.658430860001098132e+06 4.478812247137578417e+00
1.386920814376174604e+01 2.655561542001763087e-01 1.356566433323324658e+06 4.771223349384980494e+00
1.365882291503100987e+01 2.771053744375467920e-01 1.112525333851668052e+06 5.078382747354554638e+00
1.347020123849008399e+01 2.890439627048297377e-01 9.146883093414816540e+05 5.400490219455536867e+00
1.330102267929078153e+01 3.013772861441703088e-01 7.537969963404909940e+05 5.738054369859447945e+00
1.314892539640091940e+01 3.141161246235421589e-01 6.225582546806863975e+05 6.091754360499111343e+00
1.301228996581319741e+01 3.272594419249120201e-01 5.153043739496014896e+05 6.462772057799254455e+00
1.288946974156783298e+01 3.408132083926536660e-01 4.274314696842669509e+05 6.851214747230849333e+00
1.277860476722478111e+01 3.548645766750334052e-01 3.549599885346583906e+05 7.303379623867225057e+00
1.267802116024110504e+01 3.696722825325560180e-01 2.943110714481042814e+05 7.793205803897627959e+00
1.258804667750042583e+01 3.852391846983857504e-01 2.438887678152312583e+05 8.296434587785373793e+00
1.250844144224443788e+01 4.015507301214703006e-01 2.020905568667410698e+05 8.813432697027760554e+00
1.243895115578435906e+01 4.185818103794569089e-01 1.675762374945826014e+05 9.344576887340664939e+00
1.237899637168076517e+01 4.363290384960356594e-01 1.391143312192276353e+05 9.890254223214414608e+00
1.232812468924399418e+01 4.547632048711128805e-01 1.156510828803055629e+05 1.045086235998205737e+01
1.228553255775753072e+01 4.738844643022910863e-01 9.631158785696279665e+04 1.102680983360553313e+01
1.225074484084665194e+01 4.936640533522678176e-01 8.035377067209461529e+04 1.161851635839106933e+01
1.222305370850976836e+01 5.140911455223479143e-01 6.717856949298332620e+04 1.222641313285050479e+01
1.220180709515571849e+01 5.351652968780817865e-01 5.627403999271218345e+04 1.285094315393171094e+01
1.218660497094651518e+01 5.568556501080159649e-01 4.725294121334219381e+04 1.349256153984682882e+01
1.217668771472868805e+01 5.791567522184204453e-01 3.975773391782751423e+04 1.415173586173391840e+01
1.217177925312427611e+01 6.020527744246212398e-01 3.352936762525173253e+04 1.482894648439332741e+01
1.217119436011423872e+01 6.255434842250597871e-01 2.833471235220365270e+04 1.552468691634738107e+01
1.217464392516944649e+01 6.495974645946304138e-01 2.399623744717439695e+04 1.623946416947837079e+01
1.218165090256268712e+01 6.742075238605362841e-01 2.036807990668094135e+04 1.697379912850692207e+01
1.219175791262648012e+01 6.993622949018295509e-01 1.732271969760094362e+04 1.772822693057999643e+01
1.220476720343851973e+01 7.250526181934888736e-01 1.476406831387284365e+04 1.850329735524528374e+01
1.222030240018288971e+01 7.512618019162521366e-01 1.260683865833244272e+04 1.929957522509589296e+01
1.223805878212182918e+01 7.779737568238694889e-01 1.078460307202328841e+04 2.011764081737759113e+01
1.225768683999061004e+01 8.051802010650302988e-01 9.244141549469175516e+03 2.095809028685831166e+01
1.227901453857992031e+01 8.328656175003066320e-01 7.936010416808247101e+03 2.182153610026836787e+01
1.230175440126415687e+01 8.610124864274794065e-01 6.825346487898407759e+03 2.270860748262758122e+01
1.232574175186402954e+01 8.896106600297520872e-01 5.879740110679355894e+03 2.361995087578501185e+01
1.235071826592885458e+01 9.186390308707471641e-01 5.073365002300175547e+03 2.455623040950508340e+01
1.237650807934685915e+01 9.480893676275586879e-01 4.384050854291434007e+03 2.551812838544358897e+01
1.240293646588441057e+01 9.779400518499095085e-01 3.794107781163618256e+03 2.650634577436628803e+01
1.242984197330962104e+01 1.008179273541810028e+00 3.287863882742655733e+03 2.752160272697224386e+01
1.245706258356933738e+01 1.038794967404933489e+00 2.853012155489672750e+03 2.870001973180600885e+01
1.248461375039260446e+01 1.069842664909546270e+00 2.478448897168794701e+03 3.021019110119673101e+01
1.251253601180422059e+01 1.101316219213176906e+00 2.154865614620416636e+03 3.176168371768653031e+01
1.254069317036815612e+01 1.133192921373437745e+00 1.875836598185034063e+03 3.335562821154460522e+01
1.256907835818105035e+01 1.165453869102810236e+00 1.634743463000446354e+03 3.499318614929910609e+01
1.259751391884908145e+01 1.198063794650663816e+00 1.426100585150545612e+03 3.667555088021402554e+01
1.262595330863716470e+01 1.230993851116069404e+00 1.245642908188923911e+03 3.840394840592693271e+01
1.265426250045051937e+01 1.264226745524701379e+00 1.089268011410662666e+03 4.017963827388194886e+01
1.268234859892476507e+01 1.297735465140652300e+00 9.535423852749964908e+02 4.200391449520870424e+01
1.271014672502047027e+01 1.331484134078560810e+00 8.357854968188444218e+02 4.387810648771639421e+01
1.273754253068817199e+01 1.365464513839029337e+00 7.333167319057203031e+02 4.580358004468970989e+01
1.276443164920873663e+01 1.399630046705164332e+00 6.441712207092971312e+02 4.778173833019325656e+01
1.279078896448210756e+01 1.433977505790551943e+00 5.664784723759905773e+02 4.981402290160924196e+01
1.281648283898286778e+01 1.468468393472116995e+00 4.986652755927091221e+02 5.190191476015386485e+01
1.284141867332358089e+01 1.503080158340986738e+00 4.394414167810625713e+02 5.404693543013793544e+01
1.286557074515935284e+01 1.537795240017262532e+00 3.876354485886890302e+02 5.625064806775798587e+01
1.288887319608087978e+01 1.572577475510875455e+00 3.422900081278817197e+02 5.851465860022639731e+01
1.291121880310627468e+01 1.607408947323572646e+00 3.025411130692870643e+02 6.084061689607003842e+01
1.293257436350265088e+01 1.642262080358780185e+00 2.676788852721936678e+02 6.323021796745082668e+01
1.295285822549804600e+01 1.677110611854297106e+00 2.370171444549674789e+02 6.568520320538397073e+01
1.297203512935205261e+01 1.711938055438190220e+00 2.100721780272036483e+02 6.820736164875418694e+01
1.299003560757169851e+01 1.746707364091301340e+00 1.863469168311421811e+02 7.093090049946654574e+01
1.300651893926298364e+01 1.781096176051581770e+00 1.655924857653990330e+02 7.453167824913889206e+01
1.302116046127643756e+01 1.814888131363912249e+00 1.474746304730618078e+02 7.823098033198222367e+01
1.303386133125561130e+01 1.848099694037939056e+00 1.315800234423716972e+02 8.203150256676175900e+01
1.304453852514698831e+01 1.880704079517960814e+00 1.176206060241925826e+02 8.593601453512516741e+01
1.305313616994365056e+01 1.912709081454072590e+00 1.053037262340849054e+02 8.994736159989970758e+01
1.305961145998190176e+01 1.944103238295151526e+00 9.441661745838169395e+01 9.406846697861357143e+01
1.306394444448837611e+01 1.974890529349353274e+00 8.477033725163991562e+01 9.830233387375319865e+01
1.306611650686872572e+01 2.005061006330605355e+00 7.620760396528876868e+01 1.026520476613083730e+02
1.306613378216675159e+01 2.034634556263198668e+00 6.858411223328762674e+01 1.071207781392000413e+02
1.306393869928610663e+01 2.063583449186845442e+00 6.178645534338124889e+01 1.117117818372301485e+02
1.305957588447762063e+01 2.091908303933732061e+00 5.572438456962500908e+01 1.164284043902354853e+02
1.305295785743246029e+01 2.119498922251513040e+00 5.031469561641505805e+01 1.221267657258653259e+02
1.304362147514886949e+01 2.145730800800893512e+00 4.556481414331486235e+01 1.284978836271135378e+02
1.303122412339552127e+01 2.170546826043910471e+00 4.137327113983096183e+01 1.350433277951887305e+02
1.301570312528372853e+01 2.194006631846477706e+00 3.765520464950552793e+01 1.417678681382573416e+02
1.299693171909050804e+01 2.216112209873996264e+00 3.434008136430740876e+01 1.486764050785173765e+02
1.297492171191000665e+01 2.236938200727114801e+00 3.137342938267618564e+01 1.557739731233181999e+02
1.294965101704547727e+01 2.256496073407885383e+00 2.870981840436989074e+01 1.633839499141518274e+02
1.292110627748015972e+01 2.274306135024513065e+00 2.635361701736133710e+01 1.725244452034096980e+02
1.288878525360974336e+01 2.290077591348708808e+00 2.427921669087430345e+01 1.819150423500534259e+02
1.285242069852425573e+01 2.303866256282852465e+00 2.243527287784855417e+01 1.915625846308518305e+02
1.281196104140004799e+01 2.315729179103032109e+00 2.078998107170587062e+01 2.019597419392359541e+02
1.276759001037283880e+01 2.325139626224106415e+00 1.935522162129104373e+01 2.139517565959399406e+02
1.271864060259190765e+01 2.331807024852365018e+00 1.810900141481275938e+01 2.262718962660624697e+02
1.266531645104683790e+01 2.335490227891868997e+00 1.704476311288470214e+01 2.404885055784318411e+02
