# Radius[km]  Mass[Solar Mass] Lambda Central_pressure[MeV fm-3]
1.927003436109277956e+01 1.581544473474186530e-01 1.595370606199795939e+07 2.287371837947568043e+00
1.832195394568160651e+01 1.656757447822818641e-01 1.243399578740810975e+07 2.479131519383837468e+00
1.751283453177754978e+01 1.735664139580592735e-01 9.744675361975627020e+06 2.682267412195480816e+00
1.681677923651387729e+01 1.818312920632333407e-01 7.673861559741470963e+06 2.896938816963007035e+00
1.621423407026570374e+01 1.904785686103509235e-01 6.070695204129690304e+06 3.124003766585934816e+00
1.568941131659385135e+01 1.995139687109782067e-01 4.820378857512678951e+06 3.363549372689130124e+00
1.522998620574992756e+01 2.089488710454778519e-01 3.841385734729535412e+06 3.616192087462370530e+00
1.482641932343993041e+01 2.187840468590117049e-01 3.071932585198233835e+06 3.882624557868067594e+00
1.447030140431450995e+01 2.290331335919347511e-01 2.464589449714853428e+06 4.163128006909019518e+00
1.415524818771636184e+01 2.397020642797464129e-01 1.983194950964647578e+06 4.458278714398519860e+00
1.387589086760312895e+01 2.507941103557885798e-01 1.600357626234568423e+06 4.774496544970311618e+00
1.362377322697629545e+01 2.625599485425385571e-01 1.290167521210419713e+06 5.156937554355025100e+00
1.339644188537323721e+01 2.751554496927527960e-01 1.037885314984482597e+06 5.550313513221531991e+00
1.319386163023545677e+01 2.885656593470489195e-01 8.342933704274048796e+05 5.954937079253602050e+00
1.301507842846284113e+01 3.027674307250741714e-01 6.711785531855280278e+05 6.371129849803840450e+00
1.285847522876486515e+01 3.177505366009381604e-01 5.405939714956480311e+05 6.799222617501285093e+00
1.272260768019050303e+01 3.334837655926666811e-01 4.363497435894988594e+05 7.239555633167507054e+00
1.260563817274536724e+01 3.499688559032949620e-01 3.530442338575082831e+05 7.692478876250040010e+00
1.250567690516373709e+01 3.671809191463072386e-01 2.864267843024837784e+05 8.158352332988279443e+00
1.242131390598016871e+01 3.851088652862375006e-01 2.330684283424429013e+05 8.637546282532829522e+00
1.235086269676343207e+01 4.037395490334728665e-01 1.902607069345496129e+05 9.130441591245638477e+00
1.229292726201193986e+01 4.230647476586737454e-01 1.558013707904021721e+05 9.637430015415022311e+00
1.224620313409802996e+01 4.430682631022349605e-01 1.279862846917724964e+05 1.015891451262602452e+01
1.220952613000454789e+01 4.637393617142931412e-01 1.054655840762996086e+05 1.069530956203360716e+01
1.218179474919987548e+01 4.850738321662197983e-01 8.718875837506620155e+04 1.124704149379329543e+01
1.216202980592982641e+01 5.070476230477952706e-01 7.229626484729006188e+04 1.181454882791110705e+01
1.214939448716721770e+01 5.296611371907414823e-01 6.013069217978300730e+04 1.239828262278194693e+01
1.214308013760363814e+01 5.529035721324280228e-01 5.015135855923678901e+04 1.299870683369366731e+01
1.214248155981371902e+01 5.767589227983481726e-01 4.194728970984213811e+04 1.361629868158170353e+01
1.214678160801973128e+01 6.012204936207861117e-01 3.517813293540669838e+04 1.425154903232719050e+01
1.215555109082688645e+01 6.262799290462341961e-01 2.957641027598884102e+04 1.490496278690027943e+01
1.216822454167496304e+01 6.519183321796949704e-01 2.492795380870452573e+04 1.557705928265865580e+01
1.218431241661137143e+01 6.781316040562159753e-01 2.106013254460817916e+04 1.626837270612003650e+01
1.220347530184405294e+01 7.049046005112030722e-01 1.783534303358752732e+04 1.697945251753703744e+01
1.222517854344394195e+01 7.322297442201630702e-01 1.513297202134378676e+04 1.771086388761162311e+01
1.224916549881575811e+01 7.600913295143146842e-01 1.286706730592242275e+04 1.846318814669632502e+01
1.227512909417201392e+01 7.884771306314084516e-01 1.096318567572574284e+04 1.923702324683925369e+01
1.230275201335474655e+01 8.173743648590415800e-01 9.358536561654895195e+03 2.003298423704014297e+01
1.233176110304475870e+01 8.467665744681804885e-01 8.002345777689050010e+03 2.085170375209519378e+01
1.236193234663164553e+01 8.766401357476301115e-01 6.854904357800864091e+03 2.169383251541911761e+01
1.239299295235293386e+01 9.069886002238026768e-01 5.881067988988877005e+03 2.256003985624426633e+01
1.242474715093380588e+01 9.377871359878949820e-01 5.053956874174393306e+03 2.345101424160768033e+01
1.245704071993028528e+01 9.690205819994187619e-01 4.349103830272442792e+03 2.452897791802799077e+01
1.248965433792515078e+01 1.000648510233482558e+00 3.748673919741055670e+03 2.587250226167695644e+01
1.252248611110763576e+01 1.032642545599767203e+00 3.236207049031001134e+03 2.725444134240918359e+01
1.255538012456372421e+01 1.064980513215975977e+00 2.798129774434707997e+03 2.867589353408899200e+01
1.258821343282557592e+01 1.097642277183453752e+00 2.422964451633155022e+03 3.013798861584959354e+01
1.262081560490446108e+01 1.130599697471664999e+00 2.101204397305952170e+03 3.164188867004858352e+01
1.265310911947291217e+01 1.163835275496998944e+00 1.824691639988528550e+03 3.318878900589832170e+01
1.268494396966373650e+01 1.197325427710137724e+00 1.586716443247528105e+03 3.477991910950520804e+01
1.271620639812807951e+01 1.231043418779171006e+00 1.381684891822105783e+03 3.641654362107293252e+01
1.274684725336907221e+01 1.264973983863592943e+00 1.204671833672595994e+03 3.809996334004653562e+01
1.277669188923477783e+01 1.299090490994809555e+00 1.051600325184835356e+03 3.983151625899586179e+01
1.280567628835529348e+01 1.333367324314304714e+00 9.191513857810026593e+02 4.161257862706058575e+01
1.283375095007941624e+01 1.367788414346398307e+00 8.042816478483425726e+02 4.344456604380157927e+01
1.286078235681213222e+01 1.402325776315545891e+00 7.045245908953706930e+02 4.532893458432840816e+01
1.288668809544796545e+01 1.436954641565303614e+00 6.178557504722967906e+02 4.726718195659687183e+01
1.291144136376452067e+01 1.471663545957383246e+00 5.423966130028492216e+02 4.926084869179683778e+01
1.293495577866922019e+01 1.506414583375388805e+00 4.766357929282152668e+02 5.131151936877603958e+01
1.295713797695195879e+01 1.541192508355741619e+00 4.192456799402853562e+02 5.342082387347325323e+01
1.297795543182679623e+01 1.575972962074519090e+00 3.691297068392727851e+02 5.559043869436200680e+01
1.299716513903268655e+01 1.610554485060526009e+00 3.254899407988384041e+02 5.833207242787505464e+01
1.301394005138712728e+01 1.644330089232317604e+00 2.879201327452504984e+02 6.140490721155550347e+01
1.302796642567424001e+01 1.677256278204318107e+00 2.554017912152905012e+02 6.456560206332729024e+01
1.303913801931211403e+01 1.709345146812608851e+00 2.271021012965341868e+02 6.781666912331780850e+01
1.304735487701815622e+01 1.740611615455968986e+00 2.023967610547229583e+02 7.116069236005341736e+01
1.305258338626553893e+01 1.771071949344144469e+00 1.807363801635380298e+02 7.460032962421381342e+01
1.305479467819950656e+01 1.800743423628625273e+00 1.616691130283784332e+02 7.813831476110836149e+01
1.305403292967067053e+01 1.829654625475740870e+00 1.448334194492151994e+02 8.177745978355369516e+01
1.305024929593934147e+01 1.857807536175041019e+00 1.299214815519185038e+02 8.552065710687918454e+01
1.304331920832707503e+01 1.884986640099624022e+00 1.167710925379311249e+02 9.007097457781820538e+01
1.303273667401714420e+01 1.910591532541061843e+00 1.053222023469803759e+02 9.505673762015464945e+01
1.301814870281825343e+01 1.934587849208873944e+00 9.530405456463219593e+01 1.001850561564320969e+02
1.299935419675706960e+01 1.957024042225786964e+00 8.647035497227747669e+01 1.054600062064454704e+02
1.297639218409698181e+01 1.977976076595648669e+00 7.864658392603287496e+01 1.108857803336379817e+02
1.294924336829306277e+01 1.997544677229085686e+00 7.165143125583098538e+01 1.170286460422601778e+02
1.291823909586067387e+01 2.016056538691896272e+00 6.533451463450529673e+01 1.240387677050269133e+02
1.288378611274781527e+01 2.033665731814118249e+00 5.960877987231030772e+01 1.312493263616373440e+02
1.284608228955744558e+01 2.050428939635237313e+00 5.440873442087245593e+01 1.386660530094169417e+02
1.280533085178726438e+01 2.066405178556077082e+00 4.967982080172671289e+01 1.462948425093060791e+02
1.276167604562137114e+01 2.081627383521020835e+00 4.537601854737180673e+01 1.541417582711324314e+02
1.271518469759151948e+01 2.096109656448684078e+00 4.145374981916186385e+01 1.631655348843900981e+02
1.266612231927514109e+01 2.109887337936293239e+00 3.787791782942900909e+01 1.732214407627510866e+02
1.261478814680281602e+01 2.123036467396652860e+00 3.461745962105121066e+01 1.835648702593307746e+02
1.256115825109745465e+01 2.135537588439288648e+00 3.164358653058046045e+01 1.942040443968831767e+02
1.250533627774852441e+01 2.147418058188143686e+00 2.892674325534328617e+01 2.051474192578604629e+02
1.244753642533286175e+01 2.158721967616378912e+00 2.644674069397379412e+01 2.164036927053612374e+02
1.238792525077296780e+01 2.169275478023318104e+00 2.419490879884941137e+01 2.299113557291726408e+02
1.232663362639480908e+01 2.178770989082028819e+00 2.217811652841928094e+01 2.440928872973952650e+02
1.226337036288750149e+01 2.187179822121653405e+00 2.036311119812858550e+01 2.586799044894593749e+02
1.219789296843120674e+01 2.194486853318553976e+00 1.872417114831476681e+01 2.737296221249433756e+02
1.213058866101719779e+01 2.200515098669212133e+00 1.725742379346733557e+01 2.916428342516576322e+02
1.206136563319101995e+01 2.204983209861151927e+00 1.595737149446560821e+01 3.100682301265986780e+02
1.198977188319441289e+01 2.207883233654551081e+00 1.479714264473918028e+01 3.298672977552291741e+02
1.191627139101750998e+01 2.208864207629603893e+00 1.378315137317028061e+01 3.520291926294651716e+02
