# Radius[km]  Mass[Solar Mass] Lambda Central_pressure[MeV fm-3]
1.903971980390205943e+01 1.639242756584423921e-01 1.457278777030342631e+07 2.217745287531871501e+00
1.818540712110026902e+01 1.716776788848377588e-01 1.146662333244453371e+07 2.396890921732987678e+00
1.745508741808371767e+01 1.797205163704226616e-01 9.082863270221732557e+06 2.586573555906916955e+00
1.682602382066697544e+01 1.880417035537448323e-01 7.230124242954839021e+06 2.787980673809628662e+00
1.627984361098768673e+01 1.966418593271727355e-01 5.789318257728450000e+06 3.000997161431030236e+00
1.580244032384194774e+01 2.055169808357862893e-01 4.656477830318820663e+06 3.226503476612453181e+00
1.538225805297496152e+01 2.146690669891001269e-01 3.761548132939649280e+06 3.465464412036296515e+00
1.501057789384073970e+01 2.240958314318433897e-01 3.050623217948270496e+06 3.718065808617728507e+00
1.468009164397743227e+01 2.337969860211941975e-01 2.483246837737517431e+06 3.985060651045735813e+00
1.438489024168544184e+01 2.437726094757561857e-01 2.028505569234423339e+06 4.267641043747282481e+00
1.412003042494886706e+01 2.540252847020085802e-01 1.662087613732989412e+06 4.566365530461111710e+00
1.388149554298423993e+01 2.645558170319869395e-01 1.366121865486396709e+06 4.881918752182000887e+00
1.366601419193112221e+01 2.753615848648732212e-01 1.126116805716100847e+06 5.215201686858837782e+00
1.347074213266242815e+01 2.864432861904469552e-01 9.307341209007269936e+05 5.567155766272412265e+00
1.329303891424106254e+01 2.978091670132436142e-01 7.712924415496553993e+05 5.938763896128299358e+00
1.313099604771383611e+01 3.094571586035216870e-01 6.406614491314694751e+05 6.331063695506904843e+00
1.298281113187884017e+01 3.213916551597056914e-01 5.333690903745943215e+05 6.745248579534109723e+00
1.284691693484978892e+01 3.336131862125429337e-01 4.450356140534544247e+05 7.182228031541352031e+00
1.272215334914592688e+01 3.461214520693431385e-01 3.720758480393950013e+05 7.643159261477109112e+00
1.260726197457392495e+01 3.589213801246931568e-01 3.116668400075021200e+05 8.129247109327129905e+00
1.250084080253724395e+01 3.720827848350433120e-01 2.613702024274299329e+05 8.679400509238879735e+00
1.240067354361847762e+01 3.860617132580504984e-01 2.183699661848252581e+05 9.289915851847899475e+00
1.230792021765454081e+01 4.009167467907410187e-01 1.818972784469043254e+05 9.917549769859471454e+00
1.222337663496114857e+01 4.166408337453245125e-01 1.511934745641117333e+05 1.056278226042248036e+01
1.214736532227841614e+01 4.332007483346143606e-01 1.255699291878548829e+05 1.122610677958982173e+01
1.207986620398705035e+01 4.505896931050455967e-01 1.042653678155232192e+05 1.190803061970000343e+01
1.202061018908354484e+01 4.687872225215700128e-01 8.658265980883230804e+04 1.260907529734037880e+01
1.196942623949000328e+01 4.877619070436249316e-01 7.198431504368802416e+04 1.332977695218863445e+01
1.192586811274558478e+01 5.074963343613900779e-01 5.991563103305724508e+04 1.407068675703773764e+01
1.188947581602769965e+01 5.279722705428502305e-01 4.994550880397285800e+04 1.483237133931763374e+01
1.185970818592339882e+01 5.491693951854142997e-01 4.171316809187240870e+04 1.561541321443636043e+01
1.183609072482382274e+01 5.710704856014056086e-01 3.489807394082799874e+04 1.642041123127183155e+01
1.181816051689903979e+01 5.936541756671883663e-01 2.925613449984316685e+04 1.724798103015490014e+01
1.180537923481911911e+01 6.169036102925149478e-01 2.457935034894776982e+04 1.809875551369422197e+01
1.179733906263080101e+01 6.407970267495924910e-01 2.069249483739159041e+04 1.897338533080269585e+01
1.179355932100846971e+01 6.653185467342842552e-01 1.745810248504082119e+04 1.987253937429586159e+01
1.179370901469663124e+01 6.904521510844621179e-01 1.476153268405217568e+04 2.079690529244275865e+01
1.179731726633045774e+01 7.161819302100395079e-01 1.250473616067509647e+04 2.174719001486034031e+01
1.180398031415867521e+01 7.424829989727073087e-01 1.061591296817150396e+04 2.272412029315380977e+01
1.181346891730111359e+01 7.693444065777749197e-01 9.030445289218634571e+03 2.372844325671630017e+01
1.182542741148860443e+01 7.967433825183641849e-01 7.696892770828758330e+03 2.476092698411277482e+01
1.183950028643668517e+01 8.246640722997640172e-01 6.572536465954863161e+03 2.582236109048546879e+01
1.185547601430124409e+01 8.530904382762263261e-01 5.622077573548996043e+03 2.691355733142979290e+01
1.187308720035733778e+01 8.819999009861574368e-01 4.818049539872441528e+03 2.803535022380261665e+01
1.189207318936534286e+01 9.113742555336300510e-01 4.135680520549143694e+03 2.918859768393789977e+01
1.191223706622916190e+01 9.411938437301690108e-01 3.556032320656054708e+03 3.037418168375742766e+01
1.193334381184315163e+01 9.714473685073737874e-01 3.062256413759318093e+03 3.159300892527864235e+01
1.195525044210245191e+01 1.002123388190171438e+00 2.640724599814056091e+03 3.322158931668421644e+01
1.197794485026355638e+01 1.033222818363936257e+00 2.280510989570302627e+03 3.497514576854621993e+01
1.200118607011341609e+01 1.064733733987902164e+00 1.971952161312173985e+03 3.677787115401029894e+01
1.202498585969959066e+01 1.096611608602973797e+00 1.707668770443691528e+03 3.863114414784283923e+01
1.204913447370122093e+01 1.128843705562416311e+00 1.480805467799726557e+03 4.053638208223007666e+01
1.207353149749615540e+01 1.161390596063977654e+00 1.286009450427057573e+03 4.249504203071477804e+01
1.209805901711441400e+01 1.194237472043802928e+00 1.118145615099473616e+03 4.450862192252601801e+01
1.212250774900524775e+01 1.227345185215871215e+00 9.735568927667436583e+02 4.657866168815416330e+01
1.214687734766006599e+01 1.260702817471883508e+00 8.487775322467900878e+02 4.870674443704744050e+01
1.217098166162902295e+01 1.294264562257405382e+00 7.409715966018208064e+02 5.089449766833038780e+01
1.219476432315974535e+01 1.328027497037897131e+00 6.476415585880077970e+02 5.314359451547038304e+01
1.221810449558275202e+01 1.361946694009741776e+00 5.667848657333970550e+02 5.545575502584421201e+01
1.224089427767614424e+01 1.396003459979276551e+00 4.966037644972674343e+02 5.783274747618281708e+01
1.226305617313903440e+01 1.430169078138859406e+00 4.356231690727620958e+02 6.027638972490075275e+01
1.228451989528962685e+01 1.464426625909664326e+00 3.825604618256381855e+02 6.278855060234425878e+01
1.230519046138799411e+01 1.498738167591570969e+00 3.363354364640281347e+02 6.537115134002132777e+01
1.232500555742011272e+01 1.533088698533725536e+00 2.959984724873242499e+02 6.802616703990663893e+01
1.234384962391144036e+01 1.567447686084635583e+00 2.607752848961607128e+02 7.075562818494515227e+01
1.236171836013594216e+01 1.601791769972445767e+00 2.299790810627519875e+02 7.360514565682331067e+01
1.237819793086640452e+01 1.635797286333209977e+00 2.032001126943681584e+02 7.738960852809806568e+01
1.239297486253468250e+01 1.669223490955600964e+00 1.799807048192947434e+02 8.128018603482676951e+01
1.240580837229055433e+01 1.702047120319258644e+00 1.597637805006580720e+02 8.527985358362340662e+01
1.241669878781932290e+01 1.734270090571204070e+00 1.421112689322606855e+02 8.939167001016411973e+01
1.242541810345438691e+01 1.765868244043305335e+00 1.266359764585279208e+02 9.361877991850066394e+01
1.243205107324558334e+01 1.796875395957948429e+00 1.130307325740004245e+02 9.796441608596678918e+01
1.243655214525061226e+01 1.827268767747327605e+00 1.010397578601759818e+02 1.024319019355176010e+02
1.243884256756418694e+01 1.857057627506311981e+00 9.044463408599516185e+01 1.070246540773920430e+02
1.243895724047019336e+01 1.886237275230739252e+00 8.105970991881859788e+01 1.117461849220421328e+02
1.243689566997802132e+01 1.914818675619631261e+00 7.273221686695937649e+01 1.166270496024686594e+02
1.243242650920536185e+01 1.942499839377467730e+00 6.538694680149026794e+01 1.228747235801747451e+02
1.242522897318453090e+01 1.969023722316481262e+00 5.893247148173968952e+01 1.292975795240224670e+02
1.241525594346615513e+01 1.994417043494129294e+00 5.322860938537449016e+01 1.359005294574896254e+02
1.240244861455533609e+01 2.018714840011799794e+00 4.817088064313942652e+01 1.426886231349816399e+02
1.238668212018770731e+01 2.041908656954953383e+00 4.366899505360544964e+01 1.496670519037442375e+02
1.236799537536117555e+01 2.064040123704236063e+00 3.964786636084728855e+01 1.568411526740635225e+02
1.234641675936923733e+01 2.085080517432270852e+00 3.605278476868056714e+01 1.650628694480625995e+02
1.232186615501632154e+01 2.104684495105852537e+00 3.286817595137768677e+01 1.742400267462049328e+02
1.229403224689168717e+01 2.122806862499906799e+00 3.003873889330381886e+01 1.836745074041794794e+02
1.226290094428106769e+01 2.139501319609548258e+00 2.750995693166797196e+01 1.933735266531695061e+02
1.222843941645188437e+01 2.154808371034418357e+00 2.523955813097837719e+01 2.033445020361939441e+02
1.219074041214446957e+01 2.168619311333542132e+00 2.321108996906933442e+01 2.153476873044677689e+02
1.214966002828258951e+01 2.180702091493033734e+00 2.140475010924978960e+01 2.277793188596398863e+02
1.210506388751301365e+01 2.191127563947147028e+00 1.978744228118925363e+01 2.405595277679124990e+02
1.205693426311637140e+01 2.199891644135654634e+00 1.833598200862945404e+01 2.547637947649015757e+02
1.200541431511396873e+01 2.206824622581568196e+00 1.704338592562640287e+01 2.703798086813703776e+02
1.195019223093144944e+01 2.211861108381695917e+00 1.588824674831365513e+01 2.864336885990013002e+02
1.189154606357685928e+01 2.215055584926436616e+00 1.485626242921690654e+01 3.048803742405310686e+02
1.182933698490378127e+01 2.216181847645808389e+00 1.394168206842123325e+01 3.241799005298686325e+02
