# Radius[km]  Mass[Solar Mass] Lambda Central_pressure[MeV fm-3]
1.913402104256104153e+01 1.580066468702821525e-01 1.563362825435816124e+07 2.299596577316017409e+00
1.814914759079129780e+01 1.661562905599552609e-01 1.200877483817838319e+07 2.493251321388686659e+00
1.731999212658910281e+01 1.747282052428362487e-01 9.287824206324655563e+06 2.697974360860049270e+00
1.661647425558049918e+01 1.837217470742294190e-01 7.228405888266680762e+06 2.914725856445576913e+00
1.601512677989218858e+01 1.931316885474100853e-01 5.657963857907070778e+06 3.143278522438494260e+00
1.549728855226616453e+01 2.029636523353310629e-01 4.450254226762818173e+06 3.384310439741097909e+00
1.504985566524609375e+01 2.132061040236088723e-01 3.517420606457007118e+06 3.639198718497685281e+00
1.466064132488372351e+01 2.238696102609719907e-01 2.792509779749530833e+06 3.907586858506583383e+00
1.432077840766599230e+01 2.349443499296057503e-01 2.226608605372935068e+06 4.190172514811321136e+00
1.402294751049473120e+01 2.464376910830951284e-01 1.782550104704195634e+06 4.488712121061063876e+00
1.376105347500857334e+01 2.583391326266618049e-01 1.432540833962343400e+06 4.802726075176961373e+00
1.353001868483700854e+01 2.706626870135731000e-01 1.155369419474652503e+06 5.133225935368398218e+00
1.332586917417093098e+01 2.833940017642423426e-01 9.352058243421382504e+05 5.481869828229586794e+00
1.314498133192142859e+01 2.965367039907867985e-01 7.595524865510606905e+05 5.848276175258061649e+00
1.298426306630725868e+01 3.100929653272429531e-01 6.187701521436180919e+05 6.234340825247058682e+00
1.284151255642185596e+01 3.240529761904583084e-01 5.058471822396637872e+05 6.640609869239364471e+00
1.271423560967277844e+01 3.384226127238875725e-01 4.146600830441124272e+05 7.067860877331392011e+00
1.260087627215713546e+01 3.531910512751795239e-01 3.409396494964514859e+05 7.518038378712803116e+00
1.249968068463820181e+01 3.683557935443048659e-01 2.811167513160087401e+05 7.991119683784654981e+00
1.240917309236209221e+01 3.839200400961834125e-01 2.323958419874382380e+05 8.489696570432798239e+00
1.232827649497825462e+01 3.998611448470753560e-01 1.926632017914323660e+05 9.013858707788855895e+00
1.225579135966987643e+01 4.161828604633208140e-01 1.601100004188475141e+05 9.565806061747057498e+00
1.219088772694645861e+01 4.328756876558664257e-01 1.334009269941693346e+05 1.014695514875157123e+01
1.213262238811055305e+01 4.499200261839165216e-01 1.114397664477675862e+05 1.075824305698702688e+01
1.208019881534194617e+01 4.673154654678715048e-01 9.330370160254897201e+04 1.140250447671148315e+01
1.203274816796830748e+01 4.852952827229171651e-01 7.813799033699334541e+04 1.216979989166893361e+01
1.199032823515308621e+01 5.042199869856512917e-01 6.529084411393460323e+04 1.297057636755505428e+01
1.195342052792329213e+01 5.240728281943496381e-01 5.448423823052109219e+04 1.379482170989782830e+01
1.192222794556070653e+01 5.448238166256503812e-01 4.544916469040956872e+04 1.464322373572152181e+01
1.189664860796882451e+01 5.664553902921714013e-01 3.790704717702669586e+04 1.551649042034222781e+01
1.187653068170438608e+01 5.889381181509089069e-01 3.164218681764904250e+04 1.641535048815980247e+01
1.186167144740376500e+01 6.122449950693960030e-01 2.643423400783200850e+04 1.734055402076445773e+01
1.185166133438648828e+01 6.363498799074864820e-01 2.211269000389643406e+04 1.829287308286549063e+01
1.184624409205068396e+01 6.612280292451097052e-01 1.852599284053170777e+04 1.927310236656466103e+01
1.184506083887963968e+01 6.868659686880277393e-01 1.554618742576878503e+04 2.028205985451154802e+01
1.184771439012758343e+01 7.132331399004038230e-01 1.306793243097651430e+04 2.132058750249446888e+01
1.185386887903287167e+01 7.402935332443738581e-01 1.100653609749928182e+04 2.238955194203656163e+01
1.186322416347257480e+01 7.680437276502383170e-01 9.287035853222047081e+03 2.348984520358325412e+01
1.187545704851477524e+01 7.964559306809781969e-01 7.851143731848907919e+03 2.462238546088466862e+01
1.189021317771644348e+01 8.254993935603918143e-01 6.650321466120034529e+03 2.578811779719408648e+01
1.190725675840655029e+01 8.551548076014141575e-01 5.644061737026938317e+03 2.698801499392195424e+01
1.192627268849172495e+01 8.853986927744336155e-01 4.799167706954784990e+03 2.822307834240339020e+01
1.194699610174160753e+01 9.162140191021030944e-01 4.087978233385321801e+03 2.949433847945672582e+01
1.196919476291968287e+01 9.475647716350227290e-01 3.488659043218793613e+03 3.080285624743026318e+01
1.199261796049257178e+01 9.794377519682627709e-01 2.982342841624084485e+03 3.214972357945502779e+01
1.201706420986736568e+01 1.011802122835034679e+00 2.554143489321289053e+03 3.353606441064210486e+01
1.204231544511958596e+01 1.044634684370475020e+00 2.190781892691456505e+03 3.496303561598509191e+01
1.206819520246075328e+01 1.077910552971097280e+00 1.882263460144400597e+03 3.643182797575023812e+01
1.209450358187380736e+01 1.111608415399261141e+00 1.619597126101836920e+03 3.794366716915981641e+01
1.212108162046779825e+01 1.145695924483727035e+00 1.395689958765767187e+03 3.949981479719815525e+01
1.214780487699353451e+01 1.180153459074429811e+00 1.204479171234614796e+03 4.164464866162453660e+01
1.217459599340456577e+01 1.214947682724661027e+00 1.040981632162416872e+03 4.389040610150862420e+01
1.220135434659744966e+01 1.250044457948059184e+00 9.010634978631263721e+02 4.620198138574474456e+01
1.222798218708116380e+01 1.285420020116665896e+00 7.810096893270427927e+02 4.858130347983833985e+01
1.225435865934439050e+01 1.321029904033133473e+00 6.780215019289756810e+02 5.103035788271612461e+01
1.228038877653840011e+01 1.356849816924312169e+00 5.894086367020137232e+02 5.355118828358707361e+01
1.230594114045446830e+01 1.392843019939577154e+00 5.131061051641215727e+02 5.614589826736208522e+01
1.233093940207155903e+01 1.428980436755843408e+00 4.472790164040429204e+02 5.881665307005556542e+01
1.235526720493643182e+01 1.465231467480495819e+00 3.904274438196118240e+02 6.156568138563348924e+01
1.237881165318692922e+01 1.501555223441862763e+00 3.412536861058612203e+02 6.439527722581608771e+01
1.240154832772047300e+01 1.537944304504933246e+00 2.986389007174840344e+02 6.730780183438690756e+01
1.242335126536107026e+01 1.574342849579862147e+00 2.616734975891685622e+02 7.030568565760573563e+01
1.244411910477806416e+01 1.610737122189512593e+00 2.295465887447852822e+02 7.339143037236952694e+01
1.246380812125810600e+01 1.647086447937623266e+00 2.016058732447302191e+02 7.656761097381436798e+01
1.248235171664120813e+01 1.683366734787655972e+00 1.772575147277894132e+02 7.983687792409952522e+01
1.249967479318624619e+01 1.719551426874205147e+00 1.560190366752832460e+02 8.320195936416777727e+01
1.251568804499688881e+01 1.755605988704431519e+00 1.374662136868093114e+02 8.666566339032696931e+01
1.253031391558874752e+01 1.791424023115409270e+00 1.212706304966262678e+02 9.080973369400389572e+01
1.254302910209512056e+01 1.826517987463743831e+00 1.072593052555396440e+02 9.563830979486134254e+01
1.255350365461638518e+01 1.860795896251025150e+00 9.510161208430068314e+01 1.006084000524144102e+02
1.256167397285506482e+01 1.894244640746735930e+00 8.451478443985351419e+01 1.057241519122302833e+02
1.256742026219826514e+01 1.926873678898965547e+00 7.525765002940036652e+01 1.109898343717062374e+02
1.257071273555481916e+01 1.958680702158885678e+00 6.713453304141468436e+01 1.164098415424666513e+02
1.257153658263578855e+01 1.989680066781345014e+00 5.999058898850262267e+01 1.219886963171652354e+02
1.256989729292963531e+01 2.019880423259926783e+00 5.368608316518377421e+01 1.277310541437529139e+02
1.256563057637123570e+01 2.049255751455101748e+00 4.811053471700390816e+01 1.336417069103602273e+02
1.255887729584704005e+01 2.077823169242763779e+00 4.316811685856291803e+01 1.400054937217526572e+02
1.254938898863902352e+01 2.105204745149205969e+00 3.882128488823867229e+01 1.478625740252830383e+02
1.253684084843304092e+01 2.131163653597940133e+00 3.500873366780212592e+01 1.559499267880269713e+02
1.252107649739385664e+01 2.155717963850181107e+00 3.164524120057010137e+01 1.642743007516827731e+02
1.250210952105308770e+01 2.178938834692508486e+00 2.866340297092035527e+01 1.728426424476223815e+02
1.247981161736421640e+01 2.200825142875411533e+00 2.601033425997283643e+01 1.816621019936389416e+02
1.245424827684068170e+01 2.221422475623818116e+00 2.364147684170919561e+01 1.910887554646982380e+02
1.242545359968639040e+01 2.240439714800744664e+00 2.154269181787800491e+01 2.024120195471612647e+02
1.239312329590836903e+01 2.257675632104515717e+00 1.968828789907578525e+01 2.140671417455994288e+02
1.235706994930573188e+01 2.273176207315418473e+00 1.803780381386464171e+01 2.260638480372866184e+02
1.231727305926962579e+01 2.287000793368345608e+00 1.656191984672015494e+01 2.384121494449113641e+02
1.227389768867425524e+01 2.299034684355901526e+00 1.524735305471691049e+01 2.533401813115094114e+02
1.222675173498205048e+01 2.309033094034589784e+00 1.408268857534116947e+01 2.687786392377836364e+02
1.217561792318768887e+01 2.317032726922508168e+00 1.304599545736271970e+01 2.846695618883330781e+02
1.212058553898480184e+01 2.322984027999652312e+00 1.212253720232805421e+01 3.032193480391406410e+02
1.206172965398528163e+01 2.326702688533546226e+00 1.130790073052927980e+01 3.226747204894032848e+02
1.199882766739214723e+01 2.328192489786737873e+00 1.058540313557908519e+01 3.440522780795427593e+02
