# Radius[km]  Mass[Solar Mass] Lambda Central_pressure[MeV fm-3]
1.947094576830700774e+01 1.556133372075565457e-01 1.687017871128116548e+07 2.314836408265624090e+00
1.856175357871993725e+01 1.621040772675765851e-01 1.342600201311636902e+07 2.505993017468426842e+00
1.777780409538734574e+01 1.688065425179777479e-01 1.075820058724720776e+07 2.709340949797516274e+00
1.709069037241338052e+01 1.757821940293288476e-01 8.641523117265217006e+06 2.945338795254226039e+00
1.646388867160050040e+01 1.833932144505190653e-01 6.906700450938807800e+06 3.209505341070810314e+00
1.589692764261862123e+01 1.916951161226357336e-01 5.498467256211243570e+06 3.480870060086304285e+00
1.539016660015446014e+01 2.006738508066288618e-01 4.370138665653601289e+06 3.759629092569886311e+00
1.494042808833725466e+01 2.103146193002211062e-01 3.472981360506071243e+06 4.045983923341911925e+00
1.454386695244501304e+01 2.205936030852862495e-01 2.763105853688776493e+06 4.340141527405584121e+00
1.419535814378280847e+01 2.314975959889691015e-01 2.203542381734419614e+06 4.642314519546810736e+00
1.389022082220593290e+01 2.430033478230308186e-01 1.762506122025510063e+06 4.952721308010526791e+00
1.362358603089696985e+01 2.550971447850242657e-01 1.414534221984648146e+06 5.271586252364390823e+00
1.339095467463469902e+01 2.677682051280156350e-01 1.139215973324749619e+06 5.599139825664169123e+00
1.318840534669198483e+01 2.809955703401277316e-01 9.210584863551276503e+05 5.935618781037762304e+00
1.301246471610246758e+01 2.947661248186880245e-01 7.477313840555227362e+05 6.281266322808563451e+00
1.285970193538316941e+01 3.090755372819399827e-01 6.094283055126902182e+05 6.636332282281548700e+00
1.272749942989918459e+01 3.239052659785888189e-01 4.984423670104790363e+05 7.001073298319425930e+00
1.261338593278922282e+01 3.392463260058188879e-01 4.093356816385866259e+05 7.375753002839114281e+00
1.251516720217423639e+01 3.550903744979553855e-01 3.373341034816805040e+05 7.760642211362862142e+00
1.243103195510036230e+01 3.714281372923664004e-01 2.790072540168155683e+05 8.156019118761509645e+00
1.235918295070287343e+01 3.882526899280792643e-01 2.315257319417160179e+05 8.562169500331574312e+00
1.229825668653876392e+01 4.055525635175004640e-01 1.927446393385209667e+05 8.979386918351345059e+00
1.224700058681864867e+01 4.233222143357047718e-01 1.609427566229801159e+05 9.407972934265412590e+00
1.220425385394502271e+01 4.415531420009722319e-01 1.347922203731772024e+05 9.848237326650819412e+00
1.216908653204353641e+01 4.602386462231062847e-01 1.132042588843019767e+05 1.030049831512265079e+01
1.214051343320883269e+01 4.793711048008361120e-01 9.531355043840677536e+04 1.076508279034057480e+01
1.211787341540658858e+01 4.989418058555529223e-01 8.045652148389468493e+04 1.124232655028286487e+01
1.210043933468215549e+01 5.189419239611514634e-01 6.806948568328309921e+04 1.173257454295852753e+01
1.208758919033529189e+01 5.393692168049475377e-01 5.772305624481422274e+04 1.223618111573293810e+01
1.207877268168635254e+01 5.602137107478873945e-01 4.904885166362586460e+04 1.275351027144733607e+01
1.207349920901180518e+01 5.814649916683143349e-01 4.175910284796047199e+04 1.328493593151724106e+01
1.207137174899581389e+01 6.031457867404739215e-01 3.561864032193680760e+04 1.393480944435069802e+01
1.207230171776804717e+01 6.254628041037565422e-01 3.038575125910413044e+04 1.474241196225225536e+01
1.207636890555030540e+01 6.484509820655860457e-01 2.593333046655887301e+04 1.557202053236516548e+01
1.208344492228752109e+01 6.720766535839850508e-01 2.214770445292617296e+04 1.642423478919179658e+01
1.209330887332962945e+01 6.963273081406468057e-01 1.893149746081269404e+04 1.729967070644581995e+01
1.210578587725846234e+01 7.211835878594676785e-01 1.619606469733599806e+04 1.819896104227303724e+01
1.212065345111248327e+01 7.466158328542096267e-01 1.387299151324716149e+04 1.912275579660405711e+01
1.213771415247689944e+01 7.726267245631260883e-01 1.189622731060910519e+04 2.007172268096907075e+01
1.215673146947972505e+01 7.991770066177193987e-01 1.021335789525278778e+04 2.104654760111442258e+01
1.217748325981996516e+01 8.262606415907152169e-01 8.780388339431887289e+03 2.204793515276988458e+01
1.219976653602822481e+01 8.538529594914462395e-01 7.557554920289694564e+03 2.307660913092486510e+01
1.222346662269081818e+01 8.819475858240858335e-01 6.513848874941018948e+03 2.413331305298164864e+01
1.224831214991045591e+01 9.105161218521059530e-01 5.621784480424809772e+03 2.521881069616399529e+01
1.227422896142944175e+01 9.395415198783073629e-01 4.858135655860254701e+03 2.633388664956910219e+01
1.230083316897459866e+01 9.690024877528861103e-01 4.203490633042310037e+03 2.747934688126252567e+01
1.232815525767984433e+01 9.988848600512614251e-01 3.641902218048378472e+03 2.865601932082547165e+01
1.235611137741524601e+01 1.029173029091041691e+00 3.159673589518592962e+03 2.986475445777571025e+01
1.238422169155442099e+01 1.059842083563736326e+00 2.744228262853062915e+03 3.110642595629467877e+01
1.241261898196223790e+01 1.090875550067521127e+00 2.386490342536573280e+03 3.238193128670509680e+01
1.244118072893176397e+01 1.122253695025018150e+00 2.077831560352894940e+03 3.369219237415527601e+01
1.246971709897776925e+01 1.153959442375238620e+00 1.811306030814500673e+03 3.503815626497939206e+01
1.249820010395117009e+01 1.185967425077213866e+00 1.580823761683329167e+03 3.642079581121510756e+01
1.252625309209597582e+01 1.218265712113942190e+00 1.381190628212043748e+03 3.784111037377323328e+01
1.255410163283284852e+01 1.250828459772712620e+00 1.207824272356939446e+03 3.930012654476793443e+01
1.258149696207186707e+01 1.283633380074708619e+00 1.057501180848503736e+03 4.079889888952934740e+01
1.260832358352658389e+01 1.316665104104384643e+00 9.268291298444383983e+02 4.238564609321686305e+01
1.263458568725400433e+01 1.349898470284544905e+00 8.131338335377040494e+02 4.457806941603158890e+01
1.266028144710776715e+01 1.383316106845761784e+00 7.142007218732848060e+02 4.683023324366376983e+01
1.268535408456999214e+01 1.416888089142875895e+00 6.278401306643672797e+02 4.914376542228648503e+01
1.270976747925658046e+01 1.450592194258189194e+00 5.526079284554409696e+02 5.152033815463076394e+01
1.273345079485270048e+01 1.484398962879057482e+00 4.868854447453265379e+02 5.396166920864047967e+01
1.275635240713466523e+01 1.518285781889809005e+00 4.294519860198616357e+02 5.646952315906133180e+01
1.277841247683850412e+01 1.552220926458815820e+00 3.792020955469283194e+02 5.904571266286166065e+01
1.279958113288917687e+01 1.586183455864903502e+00 3.351891483223840282e+02 6.169209976940633311e+01
1.281978333483641208e+01 1.620148676120731546e+00 2.965916396399090331e+02 6.441059726633146454e+01
1.283897054857411746e+01 1.654088276132428037e+00 2.627210589183802085e+02 6.720317006209201338e+01
1.285708789087579618e+01 1.687977845896784457e+00 2.328991385508168719e+02 7.007183660618213139e+01
1.287408249104625568e+01 1.721796035763496713e+00 2.066926923447047102e+02 7.301867034805451340e+01
1.288996731452790279e+01 1.755527493533360017e+00 1.835940927204471791e+02 7.604580123579307838e+01
1.290460467649388399e+01 1.789130807911669230e+00 1.632359038599518613e+02 7.915541725562275133e+01
1.291800195433590126e+01 1.822586951318247994e+00 1.452595258908835660e+02 8.234976601336843771e+01
1.293006977452191464e+01 1.855879942562822515e+00 1.293669589537071829e+02 8.563115635900678058e+01
1.294084218103330741e+01 1.888985115786122160e+00 1.153103092929391948e+02 8.900196005548461642e+01
1.295022774390641018e+01 1.921877234394694378e+00 1.028640828671996701e+02 9.246461349301043242e+01
1.295789650149163919e+01 1.954178145102756670e+00 9.192303531645964654e+01 9.713678860472737142e+01
1.296327681199461068e+01 1.985410477957949782e+00 8.238651579785900481e+01 1.019825610077652982e+02
1.296617893680433120e+01 2.015610842180178608e+00 7.402099388213571274e+01 1.069603740101598532e+02
1.296642775194252195e+01 2.044738294912640253e+00 6.666689516777580593e+01 1.120738255357152156e+02
1.296398119632160650e+01 2.072858314301375238e+00 6.015363102132157280e+01 1.173266115466854984e+02
1.295872846452780358e+01 2.099950424114359837e+00 5.437420860739212713e+01 1.227225287151872806e+02
1.295080075827804222e+01 2.126078698981480830e+00 4.922775803364507397e+01 1.282654771674035885e+02
1.294012423727439653e+01 2.151228186777011775e+00 4.463358434909331152e+01 1.339594633025649841e+02
1.292663246466241844e+01 2.175335188454745605e+00 4.053275890566845163e+01 1.402219376928030385e+02
1.290917452291361656e+01 2.196299399515251327e+00 3.709032428618609600e+01 1.476383983415187231e+02
1.288588914453318601e+01 2.213397852727390980e+00 3.422963540980572361e+01 1.552569472906563703e+02
1.285622117940675047e+01 2.225558312083182777e+00 3.195253027853009442e+01 1.641492024329153026e+02
1.281805345606440838e+01 2.230442020472583220e+00 3.035580496391340333e+01 1.745679387163306444e+02
