# Radius[km]  Mass[Solar Mass] Lambda Central_pressure[MeV fm-3]
1.877488330648738213e+01 1.735457249029803140e-01 1.273987178261849843e+07 2.110178349281143007e+00
1.799650764671332936e+01 1.822433404027557491e-01 9.997179061819011346e+06 2.282786857355533883e+00
1.733559700229524481e+01 1.911706219818429253e-01 7.908231398666914552e+06 2.467206704389389937e+00
1.676780603378601242e+01 2.003270822850147515e-01 6.295836539460010827e+06 2.662969965431718045e+00
1.627545737157746686e+01 2.097092342552485389e-01 5.042031754844023846e+06 2.871723620276008138e+00
1.584462112803075406e+01 2.193232701035424947e-01 4.059872580579128116e+06 3.093234975656688146e+00
1.546464299796532060e+01 2.291744108828081272e-01 3.283321036610331386e+06 3.329231523832700379e+00
1.512705975023568961e+01 2.392833870903480487e-01 2.665488424148051068e+06 3.579187243704160970e+00
1.482515712848432266e+01 2.496591820549763086e-01 2.171282890813800041e+06 3.845290095106858708e+00
1.455368786122583735e+01 2.603180020462436128e-01 1.774205387722398620e+06 4.126766967959735410e+00
1.430858194742820544e+01 2.712800685874893203e-01 1.453412115478913765e+06 4.425567524299030886e+00
1.408621934848279089e+01 2.825678664066559320e-01 1.193200468917286722e+06 4.741418765128637247e+00
1.388381356225356633e+01 2.941951729911351787e-01 9.814112926673616748e+05 5.075889452833813209e+00
1.369928714187079244e+01 3.062008160912919053e-01 8.085794175562004093e+05 5.429005013854437678e+00
1.353062943807231377e+01 3.185824763172930285e-01 6.672641645308498992e+05 5.802285937997893939e+00
1.337618977559777100e+01 3.313733298679326089e-01 5.513569781174812233e+05 6.195612797853514486e+00
1.323472597654807181e+01 3.445854193085514106e-01 4.561979281952527817e+05 6.611036809576705586e+00
1.310514808594317593e+01 3.582481518179846947e-01 3.778406731661096564e+05 7.047796278564764094e+00
1.298641121895381367e+01 3.723704631977316493e-01 3.132720361957041896e+05 7.508715788918507883e+00
1.287764966152326096e+01 3.869740223648314159e-01 2.600365895550517307e+05 7.993048162006755497e+00
1.277805940782184635e+01 4.020743353120876384e-01 2.160446505052652501e+05 8.502233749686373798e+00
1.268714498829012527e+01 4.176889121548882922e-01 1.796813547848515736e+05 9.038087335209002759e+00
1.260416661884146805e+01 4.338267796935011411e-01 1.495708809645597939e+05 9.600224369195355933e+00
1.252856657480617386e+01 4.505014471878714399e-01 1.246383497727203649e+05 1.019049612266184468e+01
1.245997264421358075e+01 4.677351062716444963e-01 1.039666833948226704e+05 1.081068354986677704e+01
1.239791517811975119e+01 4.855336244486823105e-01 8.679394416955336055e+04 1.146062519574092775e+01
1.234190197187740878e+01 5.038980494106719554e-01 7.254653457561969117e+04 1.214155306378075316e+01
1.229157692976077954e+01 5.228428589808560289e-01 6.069114012266622740e+04 1.285665564053227072e+01
1.224662635027603663e+01 5.423810212038311374e-01 5.083933667642033106e+04 1.360569499614270406e+01
1.220658186541662893e+01 5.625229321741468391e-01 4.261046715198249876e+04 1.445015437743828457e+01
1.217133465506391232e+01 5.833425070541894408e-01 3.574321913288490032e+04 1.536909198554743128e+01
1.214059981363329221e+01 6.048180796457278685e-01 3.000821189114397203e+04 1.631487112028577613e+01
1.211421875239680901e+01 6.269280557513348118e-01 2.522648465627644691e+04 1.728827580392581353e+01
1.209187077312136083e+01 6.496421234999527616e-01 2.123261317886670804e+04 1.829011295948382454e+01
1.207322235910036845e+01 6.729393571385140493e-01 1.789793351241201890e+04 1.932121307963458889e+01
1.205789340515316077e+01 6.968020245007510161e-01 1.511067198540163736e+04 2.038243091516468652e+01
1.204562407414949909e+01 7.211971648338094676e-01 1.277874750370705624e+04 2.147464618353507504e+01
1.203612245208014286e+01 7.461048302348352035e-01 1.082646334955388193e+04 2.259876429814017484e+01
1.202894046738691003e+01 7.715109880923651797e-01 9.185691909300854604e+03 2.375571711886816928e+01
1.202400799032126955e+01 7.973800501809300556e-01 7.808963283344906813e+03 2.494646372458469230e+01
1.202090212703719097e+01 8.237024872391331964e-01 6.649280439769660006e+03 2.617199120818013114e+01
1.201934367851334784e+01 8.504400515771466385e-01 5.671540877520206777e+03 2.743331549483976772e+01
1.201919108481706466e+01 8.775824419422961764e-01 4.845804073783296190e+03 2.873148218421496125e+01
1.202008858334090924e+01 9.051058921801465873e-01 4.146957315636523163e+03 3.006756741719369685e+01
1.202192231208441697e+01 9.329948038739865890e-01 3.554346710585571145e+03 3.144267876798871697e+01
1.202443149049651439e+01 9.612106554204072895e-01 3.051289953832060291e+03 3.302697419282113600e+01
1.202766062522299428e+01 9.898134883685438812e-01 2.622890693708778599e+03 3.493112714600648872e+01
1.203139890805692502e+01 1.018750236844247148e+00 2.257629671147767567e+03 3.689089907892230968e+01
1.203557096554286687e+01 1.048009577230697653e+00 1.945892047349834229e+03 3.890791458317569607e+01
1.204004248695789414e+01 1.077559194006326049e+00 1.679596413133471970e+03 4.098384570356141410e+01
1.204473744627243903e+01 1.107365067198635478e+00 1.451983675029341612e+03 4.312041332413664207e+01
1.204944392411380960e+01 1.137415600852908826e+00 1.256789248306461786e+03 4.531938859478157156e+01
1.205406300990367008e+01 1.167674663123983825e+00 1.089391162139449307e+03 4.758259439942918334e+01
1.205852842437609418e+01 1.198105399210485977e+00 9.455547384153800294e+02 4.991190686718077529e+01
1.206262660387321439e+01 1.228698350281977048e+00 8.218031368598690278e+02 5.230925692756015621e+01
1.206633357481742763e+01 1.259411074612381221e+00 7.152094876259435523e+02 5.477663191119591346e+01
1.206950612948216417e+01 1.290227645850127836e+00 6.231610983620134903e+02 5.731607719725811734e+01
1.207202283501346862e+01 1.321124968733746741e+00 5.436391206218900152e+02 5.992969790901604910e+01
1.207380986483416585e+01 1.352058796034877552e+00 4.748481566769590358e+02 6.299663891098966673e+01
1.207483753605698773e+01 1.382971844384346394e+00 4.153324972060212303e+02 6.651761891026373519e+01
1.207500577402244346e+01 1.413828380473784119e+00 3.637626362250565535e+02 7.014144427964505724e+01
1.207433935248686119e+01 1.444606303689600857e+00 3.190342962383986105e+02 7.387111906066594713e+01
1.207267010520053852e+01 1.475267487089100937e+00 2.801548968006918017e+02 7.770973504081690919e+01
1.207002498799902668e+01 1.505814030167096362e+00 2.463357792720587724e+02 8.166047431654445177e+01
1.206629940082622277e+01 1.536194799462741845e+00 2.168494481460510599e+02 8.572661193111325417e+01
1.206141596251427472e+01 1.566394985832537667e+00 1.911266869412723111e+02 8.991151858951742781e+01
1.205532677494844229e+01 1.596397149146656647e+00 1.686392839947420441e+02 9.421866345269312149e+01
1.204801180308628972e+01 1.626170760197793275e+00 1.489483270543230162e+02 9.865161701334797328e+01
1.203938885088673416e+01 1.655691827879483435e+00 1.317032567412519768e+02 1.034449464116124915e+02
1.202944643914345946e+01 1.684866974792020633e+00 1.165968150969865604e+02 1.093035671872477650e+02
1.201814761715178292e+01 1.713631445196860170e+00 1.033720640752082431e+02 1.153333141897040122e+02
1.200548343438702048e+01 1.741970012763091491e+00 9.177205594302368752e+01 1.215391858967165746e+02
1.199138028613318063e+01 1.769863234194385626e+00 8.156877377891127878e+01 1.279263267880691046e+02
1.197580415360392792e+01 1.797313661038489441e+00 7.258523443287565158e+01 1.345000316102116642e+02
1.195879782103462041e+01 1.824293944014460767e+00 6.466818143593755508e+01 1.412657497654458041e+02
1.194025086310665174e+01 1.850793094338898381e+00 5.766962043151926309e+01 1.482290898293131534e+02
1.192017072025504731e+01 1.876783901975112467e+00 5.148064562261733812e+01 1.553958241999356744e+02
1.189853147000657074e+01 1.902228090737970945e+00 4.600740095328121271e+01 1.640023738388960624e+02
1.187533285525397275e+01 1.926922558221555004e+00 4.118603901389626998e+01 1.733219546221178007e+02
1.185051193481973009e+01 1.950871089068303199e+00 3.692514524509828533e+01 1.829137538601711128e+02
1.182397002220841031e+01 1.974067897709447017e+00 3.315115803232706071e+01 1.927857228642653240e+02
1.179573577920336369e+01 1.996503729392507864e+00 2.980342493468725706e+01 2.029460451978650894e+02
1.176575869365334448e+01 2.018200400561908747e+00 2.682431600460135712e+01 2.134031434606164055e+02
1.173401449494138760e+01 2.039136762289608384e+00 2.416990350326245007e+01 2.241656862704259936e+02
1.170056075642172821e+01 2.059189546894932388e+00 2.181133137673856126e+01 2.374591865928556160e+02
1.166533243735460701e+01 2.078160688643944543e+00 1.972456140714310280e+01 2.511988122292688388e+02
1.162818507653647870e+01 2.096046614885413550e+00 1.787046360302521819e+01 2.653397627479597531e+02
1.158900505424931104e+01 2.112889472775312250e+00 1.621748304771919180e+01 2.798937605688399799e+02
1.154779443199540623e+01 2.128692432567862891e+00 1.473924160879769474e+01 2.948728705155309626e+02
1.150460267906345813e+01 2.143327986544269592e+00 1.342123297780342206e+01 3.127370951926627640e+02
1.145940611358839156e+01 2.156653466251670093e+00 1.224939292898698540e+01 3.314746429187420631e+02
1.141202265842599495e+01 2.168662188940552848e+00 1.120533869842751606e+01 3.507595013455888306e+02
1.136229242857901056e+01 2.179329846950547989e+00 1.027055737479938102e+01 3.706640156252366296e+02
1.131042903004351352e+01 2.188622388983689326e+00 9.436295967302445575e+00 3.943505552588751470e+02
1.125632561857115732e+01 2.196370346253005756e+00 8.693949439944402613e+00 4.187289621952770062e+02
1.119971323947451936e+01 2.202608587677762131e+00 8.030478277612900229e+00 4.438194453958199119e+02
1.114080411296771622e+01 2.207285692874306537e+00 7.436156523361216131e+00 4.732694664131229842e+02
1.107953687173621127e+01 2.210305998147418460e+00 6.907660537863964834e+00 5.036232511952923119e+02
1.101571752989880615e+01 2.211635194054700104e+00 6.436438977790790439e+00 5.370634357939742358e+02
