# density  energy_density  pressure   sound_speed_squared  [All in nuclear units]
2.720000000000000022e-14 2.529924618736292620e-11 1.061056609100270887e-19 3.766610435412189122e-08
1.269999999999999890e-13 1.181251617980081254e-10 4.870113551826584858e-18 6.497781477172163475e-08
6.929999999999999754e-13 6.445728594625782745e-10 1.018299070687946017e-16 3.033770597342807186e-07
6.295000000000000137e-12 5.855111460395753757e-09 5.487150723824490656e-15 1.763710043904196507e-06
1.581000000000000150e-11 1.470523320212576141e-08 2.904239460150760759e-14 3.559434472327477622e-06
3.971999999999999958e-11 3.694456170323160790e-08 1.439340266754906811e-13 6.772854871245677111e-06
9.975999999999999982e-11 9.278976412613005154e-08 6.812143616221268841e-13 1.246890511177539320e-05
2.505999999999999928e-10 2.330928829758143313e-07 3.107749196951638608e-12 2.212095130576091967e-05
6.294000000000000186e-10 5.854398883216247602e-07 1.363250409771533549e-11 3.761981047239428883e-05
1.581000000000000021e-09 1.470619631082054101e-06 5.726014178088476303e-11 6.095350986710739404e-05
3.971999999999999932e-09 3.694861084648016046e-06 2.210019573374265380e-10 8.628023653304385055e-05
5.000000000000000105e-09 4.651201787816927976e-06 3.071485916280120014e-10 9.387863480799757518e-05
9.975999999999999465e-09 9.280587964640925786e-06 8.385361004129998845e-10 1.356922228656245837e-04
1.989999999999999952e-08 1.851419242998081003e-05 2.287763168863418088e-09 1.782101978513718314e-04
3.972999999999999908e-08 3.696699295748789187e-05 6.061583099087538954e-09 2.308134738384234820e-04
7.925999999999999637e-08 7.375765469301719828e-05 1.575347858094044765e-08 2.960532096713864875e-04
1.580999999999999930e-07 1.471491184379128891e-04 3.910429618672550719e-08 3.402859755131850544e-04
1.991000000000000027e-07 1.853209783927820692e-04 5.252045687899177454e-08 3.626488188833278743e-04
3.155999999999999938e-07 2.938002528823880299e-04 9.730770378831954314e-08 4.630767356912104081e-04
5.000999999999999849e-07 4.656344063839075714e-04 1.837494945860225819e-07 5.430301232045120323e-04
6.295999999999999732e-07 5.862651417037388971e-04 2.503103884558263872e-07 5.605192962670089638e-04
9.666999999999999941e-07 9.003386739730535665e-04 4.324450868778576936e-07 5.993081670211623108e-04
1.531999999999999901e-06 1.427170885631398036e-03 7.780217275717420968e-07 7.125938556504039095e-04
2.506999999999999883e-06 2.336134972129507662e-03 1.471005394641589826e-06 8.121876172121876309e-04
3.974000000000000407e-06 3.704315759716615697e-03 2.695705763844323844e-06 9.780674166779417152e-04
4.830000000000000343e-06 4.502887798316278223e-03 3.503988717694660908e-06 1.046253037768318664e-03
6.080999999999999885e-06 5.670217999231269741e-03 4.731126407333307547e-06 1.056224360839501646e-03
7.930000000000000308e-06 7.396012414119570652e-03 6.599662989063778187e-06 1.109203753630785610e-03
9.982000000000000313e-06 9.311815711689977113e-03 8.879881089227186733e-06 1.271216815433141075e-03
1.256999999999999993e-05 1.172874412604260098e-02 1.207676739913533738e-05 1.374195438212825332e-03
1.521999999999999997e-05 1.420427250933824909e-02 1.547541302213394990e-05 1.371610497379100249e-03
1.991000000000000080e-05 1.858690797761085312e-02 2.160710455847765458e-05 1.426578142835871997e-03
2.506999999999999883e-05 2.341050104039446925e-02 2.908031724375689851e-05 1.672007475975408053e-03
2.790999999999999875e-05 2.606604784714952258e-02 3.357009132255487721e-05 1.709425557744154774e-03
3.806999999999999973e-05 3.556967988784798945e-02 4.986781576435106434e-05 1.720407281314112165e-03
5.063000000000000145e-05 4.732434580343149871e-02 7.073400252905581275e-05 1.829889149838781265e-03
6.592000000000000583e-05 6.164112392498975052e-02 9.765037643900635188e-05 1.930242980462695823e-03
8.433000000000000066e-05 7.888776783401378612e-02 1.317235490470395893e-04 2.021055815200022837e-03
1.062000000000000064e-04 9.938561165478684845e-02 1.740088341640037047e-04 2.104789529260958983e-03
1.321000000000000126e-04 1.236720406455826121e-01 2.260189757651373944e-04 2.178291718403657477e-03
1.623999999999999901e-04 1.520974545104751274e-01 2.888169908545388338e-04 2.240170365918073281e-03
1.689999999999999879e-04 1.582907717069566844e-01 3.027354772999506964e-04 2.254509350360745651e-03
1.758999999999999930e-04 1.647661861691531171e-01 3.173785841705756782e-04 2.268169273277113179e-03
1.830000000000000029e-04 1.714298948183871907e-01 3.325196584577469103e-04 2.276170334580628063e-03
1.901999999999999882e-04 1.781880600978280049e-01 3.479577791899843742e-04 2.292561569242367037e-03
1.977000000000000079e-04 1.852284385240466902e-01 3.641242634600037713e-04 2.299943765467868384e-03
2.054000000000000053e-04 1.924572004474696396e-01 3.808304060475003897e-04 2.322187632288155723e-03
2.079000000000000119e-04 1.948043378760714872e-01 3.864137987380476553e-04 2.435429768083530178e-03
2.081999999999999921e-04 1.950859988578999005e-01 3.870314100985603909e-04 1.950065624557156818e-03
2.090999999999999868e-04 1.959309855029948977e-01 3.881261957135444685e-04 6.411875526909013856e-04
2.159999999999999919e-04 2.024093317906446865e-01 3.940874488768042125e-04 1.199166870571831411e-03
2.231000000000000019e-04 2.090756740932291913e-01 4.013938420547467825e-04 9.928616047829054436e-04
2.311000000000000066e-04 2.165873044433437034e-01 4.085241694843774404e-04 9.056166966301716637e-04
2.401000000000000085e-04 2.250381721984245909e-01 4.159700687886608468e-04 8.565463878902855599e-04
2.500000000000000052e-04 2.343344406330727658e-01 4.237602369176299592e-04 8.194318812157330018e-04
2.642999999999999733e-04 2.477629128650125634e-01 4.345596643180389446e-04 7.890063723638815647e-04
3.052999999999999941e-04 2.862671839140227270e-01 4.644058706720978241e-04 7.612775562167708662e-04
3.533000000000000224e-04 3.313503829113090826e-01 4.987577676308450197e-04 7.626578558207241024e-04
4.075999999999999871e-04 3.823564017794535141e-01 5.381334366106255759e-04 7.813048116943254948e-04
4.679999999999999915e-04 4.390986251953180042e-01 5.832692638200615834e-04 8.096035963157804938e-04
5.341000000000000261e-04 5.012024644415256081e-01 6.346556894078133086e-04 8.452514814113673558e-04
6.059000000000000366e-04 5.686690698184251325e-01 6.930641302632923034e-04 8.862253587289389486e-04
7.661000000000000275e-04 7.192254882508629654e-01 8.328184776562496576e-04 9.702780530519144065e-04
1.262000000000000101e-03 1.185459127778160093e+00 1.338484980802662205e-03 1.198863597978450275e-03
1.894999999999999983e-03 1.780909071169781921e+00 2.123481960401060308e-03 1.437771491635827115e-03
2.673000000000000029e-03 2.513147344746868850e+00 3.261860252001994032e-03 1.671524566936786766e-03
3.605999999999999830e-03 3.391736073717691369e+00 4.828136641022434151e-03 1.893900408978071038e-03
4.709999999999999777e-03 4.431905410739045870e+00 6.903512974832482635e-03 2.096551352830673849e-03
7.496000000000000059e-03 7.058993649504918366e+00 1.289742191321638018e-02 2.466596387205546859e-03
1.119999999999999989e-02 1.055540362104863661e+01 2.212077014004794340e-02 2.809304433764861584e-03
1.600000000000000033e-02 1.509117352747679952e+01 3.559566804390756900e-02 3.132325055719984222e-03
2.206999999999999934e-02 2.083310616724802244e+01 5.457322122755020599e-02 3.477840948757840792e-03
2.947999999999999926e-02 2.785007348564149154e+01 8.049103664263126956e-02 3.909302116317729670e-03
4.268000000000000266e-02 4.036707211535221518e+01 1.353887601042819133e-01 4.862066536253286525e-03
6.219999999999999835e-02 5.891246509830522626e+01 2.419691225623893105e-01 6.630786177272363080e-03
7.316999999999999893e-02 6.935151695866235855e+01 3.161896974764099033e-01 7.588671314871411888e-03
7.595999999999999974e-02 7.200836722020332559e+01 3.371250777904805096e-01 8.170805199905812125e-03
7.685877551020407761e-02 7.286441686238639193e+01 3.442167855686597555e-01 8.397635078447651669e-03
7.775755102040816935e-02 7.372055061464995163e+01 3.515109716012689289e-01 8.642182554128205116e-03
7.865632653061224722e-02 7.457676993107612873e+01 3.590225487087959078e-01 8.903724188884467108e-03
7.955510204081632508e-02 7.543307639944110576e+01 3.667658169952847658e-01 9.181536544653447901e-03
8.045387755102040295e-02 7.628947172976054958e+01 3.747544637893118202e-01 9.474896183372143871e-03
8.135265306122449469e-02 7.714595774334635792e+01 3.830015635824727815e-01 9.783079666977558334e-03
8.225142857142857256e-02 7.800253636234619137e+01 3.915195779616430505e-01 1.010536355740668073e-02
8.315020408163265042e-02 7.885920959974011168e+01 4.003203555316693363e-01 1.044102441659652478e-02
8.404897959183672829e-02 7.971597954976779477e+01 4.094151318255083716e-01 1.078933880648407645e-02
8.494775510204082003e-02 8.057284837876522943e+01 4.188145291991727803e-01 1.114958328900635814e-02
8.584653061224489790e-02 8.142981831638716983e+01 4.285285567091547398e-01 1.152103442610034369e-02
8.674530612244897576e-02 8.228689164719673954e+01 4.385666099702970611e-01 1.190296877970304680e-02
8.764408163265305363e-02 8.314407070260082833e+01 4.489374709923488749e-01 1.229466291175147080e-02
8.854285714285714537e-02 8.400135785311601921e+01 4.596493079937052917e-01 1.269539338418261380e-02
8.944163265306122323e-02 8.485875550094500852e+01 4.707096751910652133e-01 1.310443675893347218e-02
9.034040816326530110e-02 8.571626607285028854e+01 4.821255125639691830e-01 1.352106959794104751e-02
9.123918367346939284e-02 8.657389201330876460e+01 4.939031455933834969e-01 1.394456846314234139e-02
9.213795918367347071e-02 8.743163577793272623e+01 5.060482849736968047e-01 1.437420991647435364e-02
9.303673469387754857e-02 8.828949982714564726e+01 5.185660262976803381e-01 1.480927051987408240e-02
9.393551020408162644e-02 8.914748662009814950e+01 5.314608497141299903e-01 1.524902683527853096e-02
9.483428571428570431e-02 9.000559860881438112e+01 5.447366195580765069e-01 1.569275542462469572e-02
9.573306122448979605e-02 9.086383823255593484e+01 5.583965839535992570e-01 1.613973284984959039e-02
9.663183673469387391e-02 9.172220791239379878e+01 5.724433743894219440e-01 1.658923567289019227e-02
9.753061224489795178e-02 9.258071004597859144e+01 5.868790052676079450e-01 1.704054045568351855e-02
9.842938775510204352e-02 9.343934700249862146e+01 6.017048734257932630e-01 1.749292376016657255e-02
9.932816326530612139e-02 9.429812111781782846e+01 6.169217576335196407e-01 1.794566214827633677e-02
1.002269387755101993e-01 9.515703468978561830e+01 6.325298180633461831e-01 1.839803218194982493e-02
1.011257142857142910e-01 9.601608997370912846e+01 6.485285957375156451e-01 1.884931042312404034e-02
1.020244897959183689e-01 9.687528917798226757e+01 6.649170119510618981e-01 1.929877343373596552e-02
1.029232653061224467e-01 9.773463445986293152e+01 6.816933676723389013e-01 1.974569777572261764e-02
1.038220408163265246e-01 9.859412792139313808e+01 6.988553429220357716e-01 2.018936001102099309e-02
1.047208163265306025e-01 9.945377160545396578e+01 7.163999961318375798e-01 2.062903670156808478e-02
1.056195918367346942e-01 1.003135674919513463e+02 7.343237634839673289e-01 2.106400440930090642e-02
1.065183673469387721e-01 1.011735174941256190e+02 7.526224582329227308e-01 2.149353969615644747e-02
1.074171428571428499e-01 1.020336234549792778e+02 7.712912700107990016e-01 2.191691912407171122e-02
1.083159183673469417e-01 1.028938871438195406e+02 7.903247641176518457e-01 2.233341925498370101e-02
1.092146938775510195e-01 1.037543102529085104e+02 8.097168807984270744e-01 2.274231665082940973e-02
1.101134693877550974e-01 1.046148943942186094e+02 8.294609345080475871e-01 2.314288787354584070e-02
1.110122448979591891e-01 1.054756410962874327e+02 8.495496131663026196e-01 2.353440948507000419e-02
1.119110204081632531e-01 1.063365518011680138e+02 8.699749774042464523e-01 2.391615804733888614e-02
1.128097959183673449e-01 1.071976278614720428e+02 8.907284598038750500e-01 2.428741012228949683e-02
1.137085714285714227e-01 1.080588705375000416e+02 9.118008641328815278e-01 2.464744227185882222e-02
1.146073469387755006e-01 1.089202809944569452e+02 9.331823645763717145e-01 2.499553105798387603e-02
1.155061224489795924e-01 1.097818602997489563e+02 9.548625049674402954e-01 2.533095304260166852e-02
1.164048979591836702e-01 1.106436094203581746e+02 9.768301980185716271e-01 2.565298478764917178e-02
1.173036734693877481e-01 1.115055292202925727e+02 9.990737245558718449e-01 2.596090285506340994e-02
1.182024489795918398e-01 1.123676204581084761e+02 1.021580732758171850e+00 2.625398380678136898e-02
1.191012244897959177e-01 1.132298837845022632e+02 1.044338237403091840e+00 2.653150420474005219e-02
1.199999999999999956e-01 1.140923197399695823e+02 1.067332619122194348e+00 2.679274061087646985e-02
1.215393692186676200e-01 1.155698513742578797e+02 1.107230817701754910e+00 2.721376220205508345e-02
1.230787384373352444e-01 1.170478924176719033e+02 1.147773337624124368e+00 2.764598357069333184e-02
1.246181076560028828e-01 1.185264446652496702e+02 1.188977471019482479e+00 2.808974011968749449e-02
1.261574768746704933e-01 1.200055100845125082e+02 1.230861033149546424e+00 2.854537045668675485e-02
1.276968460933381455e-01 1.214850908155704872e+02 1.273442368411752401e+00 2.901321656221151832e-02
1.292362153120057700e-01 1.229651891712964300e+02 1.316740356626370900e+00 2.949362395227111966e-02
1.307755845306733944e-01 1.244458076375697289e+02 1.360774419600605301e+00 2.998694183570989324e-02
1.323149537493410188e-01 1.259269488735854878e+02 1.405564527963632404e+00 3.049352326595982168e-02
1.338543229680086433e-01 1.274086157122320913e+02 1.451131208266564832e+00 3.101372528745754628e-02
1.353936921866762677e-01 1.288908111605334170e+02 1.497495550341455761e+00 3.154790907664662553e-02
1.369330614053438921e-01 1.303735384001565194e+02 1.544679214913483811e+00 3.209644007761013745e-02
1.384724306240115166e-01 1.318568007879836443e+02 1.592704441460543352e+00 3.265968813236704016e-02
1.400117998426791410e-01 1.333406018567465310e+02 1.641594056314560346e+00 3.323802760586849758e-02
1.415511690613467655e-01 1.348249453157244773e+02 1.691371480998945076e+00 3.383183750573531129e-02
1.430905382800143899e-01 1.363098350515033701e+02 1.742060740796701257e+00 3.444150159677787648e-02
1.446299074986820421e-01 1.377952751287946285e+02 1.793686473543812498e+00 3.506740851034213097e-02
1.461692767173496665e-01 1.392812697913157081e+02 1.846273938642634560e+00 3.570995184852451126e-02
1.477086459360172910e-01 1.407678234627282734e+02 1.899849026290151510e+00 3.636953028329728554e-02
1.492480151546849154e-01 1.422549407476345777e+02 1.954438266916035172e+00 3.704654765059624960e-02
1.507873843733525399e-01 1.437426264326322780e+02 2.010068840825585124e+00 3.774141303938263747e-02
1.523267535920201643e-01 1.452308854874238477e+02 2.066768588042722232e+00 3.845454087575928687e-02
1.538661228106877887e-01 1.467197230659830609e+02 2.124566018348333252e+00 3.918635100214226674e-02
1.554054920293554132e-01 1.482091445077755907e+02 2.183490321509357734e+00 3.993726875153696954e-02
1.569448612480230376e-01 1.496991553390333820e+02 2.243571377694117519e+00 4.070772501694558398e-02
1.584842304666906898e-01 1.511897612740825707e+02 2.304839768069497197e+00 4.149815631593355841e-02
1.600235996853583142e-01 1.526809682167225048e+02 2.367326785575670112e+00 4.230900485037893122e-02
1.615629689040259387e-01 1.541727822616578010e+02 2.431064445874187019e+00 4.314071856142553257e-02
1.631023381226935631e-01 1.556652096959791720e+02 2.496085498465292929e+00 4.399375117965644705e-02
1.646417073413611876e-01 1.571582570006956416e+02 2.562423437970470452e+00 4.486856227050230878e-02
1.661810765600288120e-01 1.586519308523141660e+02 2.630112515576262133e+00 4.576561727489332487e-02
1.677204457786964364e-01 1.601462381244689652e+02 2.699187750635517968e+00 4.668538754516276396e-02
1.692598149973640609e-01 1.616411858895970397e+02 2.769684942422282692e+00 4.762835037620373468e-02
1.707991842160316853e-01 1.631367814206605260e+02 2.841640682036612908e+00 4.859498903187878943e-02
1.723385534346993375e-01 1.646330321929157776e+02 2.915092364455681651e+00 4.958579276667855057e-02
1.738779226533669342e-01 1.661299458857258458e+02 2.990078200727575020e+00 5.060125684262110901e-02
1.754172918720345864e-01 1.676275303844194013e+02 3.066637230304290362e+00 5.164188254138182138e-02
1.769566610907022108e-01 1.691257937821910957e+02 3.144809333510407701e+00 5.270817717163805982e-02
1.784960303093698353e-01 1.706247443820467140e+02 3.224635244144081536e+00 5.380065407161287172e-02
1.800353995280374597e-01 1.721243906987886021e+02 3.306156562206923777e+00 5.491983260679537265e-02
1.815747687467050842e-01 1.736247414610445787e+02 3.389415766759468873e+00 5.606623816281530032e-02
1.831141379653727086e-01 1.751258056133354444e+02 3.474456228898918475e+00 5.724040213344454286e-02
1.846535071840403330e-01 1.766275923181845826e+02 3.561322224855900664e+00 5.844286190369666484e-02
1.861928764027079852e-01 1.781301109582646234e+02 3.650058949207009018e+00 5.967416082799242155e-02
1.877322456213755819e-01 1.796333711385854599e+02 3.740712528199900078e+00 6.093484820335684504e-02
1.892716148400432341e-01 1.811373826887174232e+02 3.833330033187799302e+00 6.222547923761171523e-02
1.908109840587108308e-01 1.826421556650538491e+02 3.927959494170171428e+00 6.354661501252312217e-02
1.923503532773784830e-01 1.841477003531095420e+02 4.024649913436494586e+00 6.489882244186542803e-02
1.938897224960461074e-01 1.856540272698550496e+02 4.123451279309892747e+00 6.628267422435639433e-02
1.954290917147137319e-01 1.871611471660865220e+02 4.224414579987572971e+00 6.769874879142101509e-02
2.730733959654338405e-01 2.648939672738451918e+02 1.456248985165890630e+01 1.954270904261325159e-01
3.507177002161540047e-01 3.469499427921078336e+02 3.602624694770145197e+01 3.231554320608441278e-01
4.283620044668741134e-01 4.350260729814593788e+02 7.037824110463651550e+01 4.508837736955556563e-01
5.060063087175942220e-01 5.305045717892458015e+02 1.184666273893110287e+02 5.510236095556592106e-01
5.836506129683143307e-01 6.342481443607462097e+02 1.761998546432255353e+02 5.620208355866255223e-01
6.612949172190345504e-01 7.460576395459504511e+02 2.396563459379761696e+02 5.730180616175917230e-01
7.389392214697545480e-01 8.656573947151709945e+02 3.088527865136395008e+02 5.840152876485580347e-01
8.165835257204747677e-01 9.928332369073940527e+02 3.838334600471733893e+02 5.950125136795243463e-01
8.942278299711947653e-01 1.127417140966733314e+03 4.646635592883491199e+02 6.060097397104906580e-01
9.718721342219149850e-01 1.269276770209504321e+03 5.514247213534107459e+02 6.170069657414569697e-01
1.049516438472634983e+00 1.418308077510169824e+03 6.442119346641719630e+02 6.280041917724231704e-01
1.127160742723355202e+00 1.574429910775035751e+03 7.431313312614908000e+02 6.390014178033894821e-01
1.204805046974075200e+00 1.737579979523479096e+03 8.482985724750230929e+02 6.499986438343557937e-01
1.282449351224795420e+00 1.907711774230936044e+03 9.598376449205505878e+02 6.609958698653219944e-01
1.360093655475515417e+00 2.084792170058632109e+03 1.077879947922498104e+03 6.719930958962883061e-01
1.437737959726235637e+00 2.268799533271924702e+03 1.202563592727193281e+03 6.829903219272546178e-01
1.515382263976955857e+00 2.459709434422090453e+03 1.332500156960633603e+03 6.784939740135036423e-01
1.593026568227675854e+00 2.657467867211395514e+03 1.480664851800030647e+03 8.155753540128232171e-01
1.670670872478396074e+00 2.863205038531202263e+03 1.663113388200209329e+03 9.526567340121431249e-01
1.748315176729116072e+00 3.078221146647362275e+03 1.868611329446659056e+03 9.585844732006409963e-01
1.825959480979836291e+00 3.302589750981662746e+03 2.083989697698069449e+03 9.611935931325650273e-01
1.903603785230556289e+00 3.536320273226809149e+03 2.308964582031027021e+03 9.638027130644890583e-01
1.981248089481276509e+00 3.779423471884681476e+03 2.543595201204320347e+03 9.664118329964130893e-01
2.058892393731996950e+00 4.031911614327826555e+03 2.787942320506565466e+03 9.690209529283372314e-01
