# density  energy_density  pressure   sound_speed_squared  [All in nuclear units]
2.720000000000000022e-14 2.529924618736292620e-11 1.061056609100270887e-19 3.766610435412189122e-08
1.269999999999999890e-13 1.181251617980081254e-10 4.870113551826584858e-18 6.497781477172163475e-08
6.929999999999999754e-13 6.445728594625782745e-10 1.018299070687946017e-16 3.033770597342807186e-07
6.295000000000000137e-12 5.855111460395753757e-09 5.487150723824490656e-15 1.763710043904196507e-06
1.581000000000000150e-11 1.470523320212576141e-08 2.904239460150760759e-14 3.559434472327477622e-06
3.971999999999999958e-11 3.694456170323160790e-08 1.439340266754906811e-13 6.772854871245677111e-06
9.975999999999999982e-11 9.278976412613005154e-08 6.812143616221268841e-13 1.246890511177539320e-05
2.505999999999999928e-10 2.330928829758143313e-07 3.107749196951638608e-12 2.212095130576091967e-05
6.294000000000000186e-10 5.854398883216247602e-07 1.363250409771533549e-11 3.761981047239428883e-05
1.581000000000000021e-09 1.470619631082054101e-06 5.726014178088476303e-11 6.095350986710739404e-05
3.971999999999999932e-09 3.694861084648016046e-06 2.210019573374265380e-10 8.628023653304385055e-05
5.000000000000000105e-09 4.651201787816927976e-06 3.071485916280120014e-10 9.387863480799757518e-05
9.975999999999999465e-09 9.280587964640925786e-06 8.385361004129998845e-10 1.356922228656245837e-04
1.989999999999999952e-08 1.851419242998081003e-05 2.287763168863418088e-09 1.782101978513718314e-04
3.972999999999999908e-08 3.696699295748789187e-05 6.061583099087538954e-09 2.308134738384234820e-04
7.925999999999999637e-08 7.375765469301719828e-05 1.575347858094044765e-08 2.960532096713864875e-04
1.580999999999999930e-07 1.471491184379128891e-04 3.910429618672550719e-08 3.402859755131850544e-04
1.991000000000000027e-07 1.853209783927820692e-04 5.252045687899177454e-08 3.626488188833278743e-04
3.155999999999999938e-07 2.938002528823880299e-04 9.730770378831954314e-08 4.630767356912104081e-04
5.000999999999999849e-07 4.656344063839075714e-04 1.837494945860225819e-07 5.430301232045120323e-04
6.295999999999999732e-07 5.862651417037388971e-04 2.503103884558263872e-07 5.605192962670089638e-04
9.666999999999999941e-07 9.003386739730535665e-04 4.324450868778576936e-07 5.993081670211623108e-04
1.531999999999999901e-06 1.427170885631398036e-03 7.780217275717420968e-07 7.125938556504039095e-04
2.506999999999999883e-06 2.336134972129507662e-03 1.471005394641589826e-06 8.121876172121876309e-04
3.974000000000000407e-06 3.704315759716615697e-03 2.695705763844323844e-06 9.780674166779417152e-04
4.830000000000000343e-06 4.502887798316278223e-03 3.503988717694660908e-06 1.046253037768318664e-03
6.080999999999999885e-06 5.670217999231269741e-03 4.731126407333307547e-06 1.056224360839501646e-03
7.930000000000000308e-06 7.396012414119570652e-03 6.599662989063778187e-06 1.109203753630785610e-03
9.982000000000000313e-06 9.311815711689977113e-03 8.879881089227186733e-06 1.271216815433141075e-03
1.256999999999999993e-05 1.172874412604260098e-02 1.207676739913533738e-05 1.374195438212825332e-03
1.521999999999999997e-05 1.420427250933824909e-02 1.547541302213394990e-05 1.371610497379100249e-03
1.991000000000000080e-05 1.858690797761085312e-02 2.160710455847765458e-05 1.426578142835871997e-03
2.506999999999999883e-05 2.341050104039446925e-02 2.908031724375689851e-05 1.672007475975408053e-03
2.790999999999999875e-05 2.606604784714952258e-02 3.357009132255487721e-05 1.709425557744154774e-03
3.806999999999999973e-05 3.556967988784798945e-02 4.986781576435106434e-05 1.720407281314112165e-03
5.063000000000000145e-05 4.732434580343149871e-02 7.073400252905581275e-05 1.829889149838781265e-03
6.592000000000000583e-05 6.164112392498975052e-02 9.765037643900635188e-05 1.930242980462695823e-03
8.433000000000000066e-05 7.888776783401378612e-02 1.317235490470395893e-04 2.021055815200022837e-03
1.062000000000000064e-04 9.938561165478684845e-02 1.740088341640037047e-04 2.104789529260958983e-03
1.321000000000000126e-04 1.236720406455826121e-01 2.260189757651373944e-04 2.178291718403657477e-03
1.623999999999999901e-04 1.520974545104751274e-01 2.888169908545388338e-04 2.240170365918073281e-03
1.689999999999999879e-04 1.582907717069566844e-01 3.027354772999506964e-04 2.254509350360745651e-03
1.758999999999999930e-04 1.647661861691531171e-01 3.173785841705756782e-04 2.268169273277113179e-03
1.830000000000000029e-04 1.714298948183871907e-01 3.325196584577469103e-04 2.276170334580628063e-03
1.901999999999999882e-04 1.781880600978280049e-01 3.479577791899843742e-04 2.292561569242367037e-03
1.977000000000000079e-04 1.852284385240466902e-01 3.641242634600037713e-04 2.299943765467868384e-03
2.054000000000000053e-04 1.924572004474696396e-01 3.808304060475003897e-04 2.322187632288155723e-03
2.079000000000000119e-04 1.948043378760714872e-01 3.864137987380476553e-04 2.435429768083530178e-03
2.081999999999999921e-04 1.950859988578999005e-01 3.870314100985603909e-04 1.950065624557156818e-03
2.090999999999999868e-04 1.959309855029948977e-01 3.881261957135444685e-04 6.411875526909013856e-04
2.159999999999999919e-04 2.024093317906446865e-01 3.940874488768042125e-04 1.199166870571831411e-03
2.231000000000000019e-04 2.090756740932291913e-01 4.013938420547467825e-04 9.928616047829054436e-04
2.311000000000000066e-04 2.165873044433437034e-01 4.085241694843774404e-04 9.056166966301716637e-04
2.401000000000000085e-04 2.250381721984245909e-01 4.159700687886608468e-04 8.565463878902855599e-04
2.500000000000000052e-04 2.343344406330727658e-01 4.237602369176299592e-04 8.194318812157330018e-04
2.642999999999999733e-04 2.477629128650125634e-01 4.345596643180389446e-04 7.890063723638815647e-04
3.052999999999999941e-04 2.862671839140227270e-01 4.644058706720978241e-04 7.612775562167708662e-04
3.533000000000000224e-04 3.313503829113090826e-01 4.987577676308450197e-04 7.626578558207241024e-04
4.075999999999999871e-04 3.823564017794535141e-01 5.381334366106255759e-04 7.813048116943254948e-04
4.679999999999999915e-04 4.390986251953180042e-01 5.832692638200615834e-04 8.096035963157804938e-04
5.341000000000000261e-04 5.012024644415256081e-01 6.346556894078133086e-04 8.452514814113673558e-04
6.059000000000000366e-04 5.686690698184251325e-01 6.930641302632923034e-04 8.862253587289389486e-04
7.661000000000000275e-04 7.192254882508629654e-01 8.328184776562496576e-04 9.702780530519144065e-04
1.262000000000000101e-03 1.185459127778160093e+00 1.338484980802662205e-03 1.198863597978450275e-03
1.894999999999999983e-03 1.780909071169781921e+00 2.123481960401060308e-03 1.437771491635827115e-03
2.673000000000000029e-03 2.513147344746868850e+00 3.261860252001994032e-03 1.671524566936786766e-03
3.605999999999999830e-03 3.391736073717691369e+00 4.828136641022434151e-03 1.893900408978071038e-03
4.709999999999999777e-03 4.431905410739045870e+00 6.903512974832482635e-03 2.096551352830673849e-03
7.496000000000000059e-03 7.058993649504918366e+00 1.289742191321638018e-02 2.466596387205546859e-03
1.119999999999999989e-02 1.055540362104863661e+01 2.212077014004794340e-02 2.809304433764861584e-03
1.600000000000000033e-02 1.509117352747679952e+01 3.559566804390756900e-02 3.132325055719984222e-03
2.206999999999999934e-02 2.083310616724802244e+01 5.457322122755020599e-02 3.477840948757840792e-03
2.947999999999999926e-02 2.785007348564149154e+01 8.049103664263126956e-02 3.909302116317729670e-03
4.268000000000000266e-02 4.036707211535221518e+01 1.353887601042819133e-01 4.862066536253286525e-03
6.219999999999999835e-02 5.891246509830522626e+01 2.419691225623893105e-01 6.630786177272363080e-03
7.316999999999999893e-02 6.935151695866235855e+01 3.161896974764099033e-01 7.588671314871411888e-03
7.595999999999999974e-02 7.200836722020332559e+01 3.371250777904805096e-01 8.170805199905812125e-03
7.685877551020407761e-02 7.286441678163490110e+01 3.442029661420420439e-01 8.365351729336743813e-03
7.775755102040816935e-02 7.372055007866482867e+01 3.514466992425739345e-01 8.556615340583878862e-03
7.865632653061224722e-02 7.457676804502625600e+01 3.588536050934756361e-01 8.744826131455800053e-03
7.955510204081632508e-02 7.543307156369520783e+01 3.664212080084110479e-01 8.930214199761114455e-03
8.045387755102040295e-02 7.628946147082912432e+01 3.741472286733286134e-01 9.113009643308425667e-03
8.135265306122449469e-02 7.714593855953056334e+01 3.820295842118551777e-01 9.293442559906325146e-03
8.225142857142857256e-02 7.800250358344504775e+01 3.900663882555976958e-01 9.471743047363416490e-03
8.315020408163265042e-02 7.885915726020235184e+01 3.982559510189367380e-01 9.648141203488298095e-03
8.404897959183672829e-02 7.971590027471032158e+01 4.065967793779315387e-01 9.822867126089566622e-03
8.494775510204082003e-02 8.057273328230797915e+01 4.150875769530018577e-01 9.996150912975830874e-03
8.584653061224489790e-02 8.142965691178648058e+01 4.237272441950823976e-01 1.016822266195567537e-02
8.674530612244897576e-02 8.228667176828437846e+01 4.325148784749854869e-01 1.033931247083770717e-02
8.764408163265305363e-02 8.314377843606376928e+01 4.414497741757325011e-01 1.050965043743052815e-02
8.854285714285714537e-02 8.400097748117369179e+01 4.505314227876499600e-01 1.067946665954273844e-02
8.944163265306122323e-02 8.485826945400590660e+01 4.597595130060501134e-01 1.084899123498292775e-02
9.034040816326530110e-02 8.571565489174970764e+01 4.691339308313444700e-01 1.101845426155970142e-02
9.123918367346939284e-02 8.657313432074910509e+01 4.786547596714593733e-01 1.118808583708166132e-02
9.213795918367347071e-02 8.743070825876887397e+01 4.883222804464482092e-01 1.135811605935740237e-02
9.303673469387754857e-02 8.828837721717285092e+01 4.981369716952165350e-01 1.152877502619552644e-02
9.393551020408162644e-02 8.914614170301923934e+01 5.080995096842921832e-01 1.170029283540463018e-02
9.483428571428570431e-02 9.000400222107656134e+01 5.182107685185961543e-01 1.187289958479331373e-02
9.573306122448979605e-02 9.086195927576467568e+01 5.284718202541849319e-01 1.204682537217018068e-02
9.663183673469387391e-02 9.172001337302336310e+01 5.388839350129501771e-01 1.222230029534382596e-02
9.753061224489795178e-02 9.257816502211285581e+01 5.494485810992824071e-01 1.239955445212284624e-02
9.842938775510204352e-02 9.343641473734905389e+01 5.601674251187130915e-01 1.257881794031584684e-02
9.932816326530612139e-02 9.429476303977654084e+01 5.710423320985679174e-01 1.276032085773141922e-02
1.002269387755101993e-01 9.515321045878160078e+01 5.820753656106777418e-01 1.294429330217817739e-02
1.011257142857142910e-01 9.601175753364923082e+01 5.932687878962011885e-01 1.313096537146470587e-02
1.020244897959183689e-01 9.687040481506527101e+01 6.046250599926289437e-01 1.332056716339960478e-02
1.029232653061224467e-01 9.772915286656724732e+01 6.161468418630505761e-01 1.351332877579147600e-02
1.038220408163265246e-01 9.858800226594529192e+01 6.278369925277709207e-01 1.370948030644892485e-02
1.047208163265306025e-01 9.944695360659596872e+01 6.396985701983785022e-01 1.390925185318054973e-02
1.056195918367346942e-01 1.003060074988304251e+02 6.517348324143733551e-01 1.411287351379494209e-02
1.065183673469387721e-01 1.011651645711397975e+02 6.639492361824721467e-01 1.432057538610070554e-02
1.074171428571428499e-01 1.020244254714182262e+02 6.763454381187191666e-01 1.453258756790643674e-02
1.083159183673469417e-01 1.028837908681470736e+02 6.889272945935338566e-01 1.474914015702073929e-02
1.092146938775510195e-01 1.037432614515401781e+02 7.016988618798387645e-01 1.497046325125221330e-02
1.101134693877550974e-01 1.046028379346534223e+02 7.146643963044173598e-01 1.519678694840945199e-02
1.110122448979591891e-01 1.054625210544588612e+02 7.278283544026555862e-01 1.542834134630105720e-02
1.119110204081632531e-01 1.063223115728849848e+02 7.411953930768295784e-01 1.566535654273562561e-02
1.128097959183673449e-01 1.071822102778262291e+02 7.547703697581119586e-01 1.590806263552177122e-02
1.137085714285714227e-01 1.080422179841196879e+02 7.685583425724626938e-01 1.615668972246806986e-02
1.146073469387755006e-01 1.089023355344936164e+02 7.825645705105943595e-01 1.641146790138313730e-02
1.155061224489795924e-01 1.097625638004875839e+02 7.967945136021894470e-01 1.667262727007556844e-02
1.164048979591836702e-01 1.106229036833443473e+02 8.112538330945632259e-01 1.694039792635396169e-02
1.173036734693877481e-01 1.114833561148762868e+02 8.259483916359685596e-01 1.721500996802691891e-02
1.182024489795918398e-01 1.123439220583070011e+02 8.408842534637406274e-01 1.749669349290303502e-02
1.191012244897959177e-01 1.132046025090877635e+02 8.560676845974859450e-01 1.778567859879091190e-02
1.199999999999999956e-01 1.140653984956917668e+02 8.715051530375279576e-01 1.808219538349915140e-02
1.217912354456790330e-01 1.157812915592624847e+02 9.030588650352258107e-01 1.869591186458017737e-02
1.235824708913580844e-01 1.174976566646395923e+02 9.356999397201198887e-01 1.933912801601412462e-02
1.253737063370371219e-01 1.192145031050058037e+02 9.694802834402528324e-01 2.001240740376753965e-02
1.271649417827161732e-01 1.209318406569470881e+02 1.004452833685236968e+00 2.071630438806423835e-02
1.289561772283951968e-01 1.226496795744659920e+02 1.040671547336130098e+00 2.145136414705307859e-02
1.307474126740742482e-01 1.243680305831654351e+02 1.078191389110427334e+00 2.221812269200449871e-02
1.325386481197532718e-01 1.260869048745938414e+02 1.117068320189662511e+00 2.301710687453009316e-02
1.343298835654323231e-01 1.278063141007444301e+02 1.157359287017758920e+00 2.384883438629622002e-02
1.361211190111113745e-01 1.295262703686980501e+02 1.199122210258811716e+00 2.471381375167654160e-02
1.379123544567903981e-01 1.312467862354054660e+02 1.242415973903557846e+00 2.561254431376661783e-02
1.397035899024694494e-01 1.329678747025989196e+02 1.287300414514269020e+00 2.654551621416265106e-02
1.414948253481485008e-01 1.346895492118280231e+02 1.333836310598278230e+00 2.751321036688650704e-02
1.432860607938275244e-01 1.364118236396131181e+02 1.382085372100805953e+00 2.851609842682358009e-02
1.450772962395065757e-01 1.381347122927109297e+02 1.432110230008152518e+00 2.955464275302165100e-02
1.468685316851855993e-01 1.398582299034852099e+02 1.483974426052703466e+00 3.062929636718399184e-02
1.486597671308646507e-01 1.415823916253793300e+02 1.537742402511589779e+00 3.174050290767697902e-02
1.504510025765437020e-01 1.433072130284842842e+02 1.593479492091141037e+00 3.288869657935853535e-02
1.522422380222227534e-01 1.450327100951976718e+02 1.651251907889634163e+00 3.407430209952123923e-02
1.540334734679017770e-01 1.467588992159695636e+02 1.711126733431105995e+00 3.529773464023328033e-02
1.558247089135808283e-01 1.484857971851302239e+02 1.773171912763303881e+00 3.655939976734978031e-02
1.576159443592598519e-01 1.502134211967974124e+02 1.837456240613090763e+00 3.785969337645603283e-02
1.594071798049389033e-01 1.519417888408567592e+02 1.904049352592902311e+00 3.919900162599649490e-02
1.611984152506179546e-01 1.536709180990137611e+02 1.973021715452044411e+00 4.057770086783345914e-02
1.629896506962969782e-01 1.554008273409131391e+02 2.044444617366882433e+00 4.199615757547136424e-02
1.647808861419760296e-01 1.571315353203220866e+02 2.118390158264152667e+00 4.345472827017547723e-02
1.665721215876550532e-01 1.588630611713750795e+02 2.194931240171814846e+00 4.495375944520594441e-02
1.683633570333341045e-01 1.605954244048753310e+02 2.274141557592087359e+00 4.649358748838112315e-02
1.701545924790131559e-01 1.623286449046525490e+02 2.356095587891412713e+00 4.807453860317816713e-02
1.719458279246921795e-01 1.640627429239723085e+02 2.440868581702328122e+00 4.969692872857276594e-02
1.737370633703712308e-01 1.657977390819957861e+02 2.528536553332324743e+00 5.136106345781275145e-02
1.755282988160502544e-01 1.675336543602853396e+02 2.619176271174914028e+00 5.306723795631648755e-02
1.773195342617293058e-01 1.692705100993567839e+02 2.712865248118307537e+00 5.481573687888021545e-02
1.791107697074083571e-01 1.710083279952721682e+02 2.809681731947154759e+00 5.660683428637429404e-02
1.809020051530874085e-01 1.727471300962743328e+02 2.909704695732987734e+00 5.844079356210232085e-02
1.826932405987664321e-01 1.744869387994582723e+02 3.013013828209060829e+00 6.031786732799423317e-02
1.844844760444454834e-01 1.762277768474801576e+02 3.119689524125423219e+00 6.223829736079758423e-02
1.862757114901245070e-01 1.779696673252982748e+02 3.229812874580108240e+00 6.420231450842821264e-02
1.880669469358035584e-01 1.797126336569489240e+02 3.343465657322482798e+00 6.621013860663789441e-02
1.898581823814826097e-01 1.814566996023501702e+02 3.460730327024791553e+00 6.826197839615008589e-02
1.916494178271616611e-01 1.832018892541356365e+02 3.581690005518094910e+00 7.035803144041341550e-02
1.934406532728406847e-01 1.849482270345152983e+02 3.706428471988809648e+00 7.249848404411722569e-02
1.952318887185197083e-01 1.866957376921610035e+02 3.835030153132162223e+00 7.468351117260936534e-02
1.970231241641987596e-01 1.884444462991157536e+02 3.967580113258900809e+00 7.691327637235399750e-02
1.988143596098778110e-01 1.901943782477265188e+02 4.104164044351684026e+00 7.918793169256210795e-02
2.006055950555568623e-01 1.919455592475952415e+02 4.244868256067629630e+00 8.150761760812476331e-02
2.023968305012358859e-01 1.936980153225524077e+02 4.389779665683517962e+00 8.387246294397468493e-02
2.041880659469149095e-01 1.954517728076459093e+02 4.538985787980224451e+00 8.628258480099953998e-02
2.059793013925939609e-01 1.972068583461475271e+02 4.692574725062971908e+00 8.873808848362510493e-02
2.077705368382730122e-01 1.989632988865757568e+02 4.850635156114041280e+00 9.123906742918377888e-02
2.851629748619817217e-01 2.767243577344266896e+02 1.669735667176713179e+01 2.105473937114126226e-01
3.625554128856904312e-01 3.589668504088587611e+02 3.909491516127631172e+01 3.298557199936414941e-01
4.399478509093991407e-01 4.471566810053518566e+02 7.368597379556968008e+01 4.491640462758703656e-01
5.173402889331077947e-01 5.425607317115883461e+02 1.225436015800086409e+02 5.684723725580991260e-01
5.947327269568165597e-01 6.463950959603821502e+02 1.878015352062044769e+02 6.812685805407636686e-01
6.721251649805253248e-01 7.595958856382187605e+02 2.595668520713969087e+02 5.928837901307228986e-01
7.495176030042338677e-01 8.807697798724454969e+02 3.257812752152121334e+02 5.044989997206823507e-01
8.269100410279426328e-01 1.008431878848122778e+03 3.854213232617888139e+02 4.325477776259548657e-01
9.043024790516513978e-01 1.141528323140479415e+03 4.444608766770208490e+02 4.542122485064414850e-01
9.816949170753601628e-01 1.279902707933684724e+03 5.088398696175261193e+02 4.758767193869280487e-01
1.059087355099068706e+00 1.423568773748644162e+03 5.787936918063815028e+02 4.975411902674146125e-01
1.136479793122777471e+00 1.572555806971966376e+03 6.545665439567056865e+02 5.192056611479012318e-01
1.213872231146486236e+00 1.726823858164260173e+03 7.313552151052465433e+02 4.774776993096688793e-01
1.291264669170194779e+00 1.885820235728308489e+03 8.018283883837747226e+02 4.104256717450969205e-01
1.368657107193903544e+00 2.048766753067570789e+03 8.631548021005702367e+02 3.433736441805247397e-01
1.446049545217612309e+00 2.215049981621737516e+03 9.226282011877789273e+02 3.716318729030063106e-01
1.523441983241321074e+00 2.384747150730826888e+03 9.930790844734037819e+02 4.574336250203132059e-01
1.600834421265029839e+00 2.558418962055499378e+03 1.080105042069429601e+03 5.432353771376201568e-01
1.678226859288738382e+00 2.736698405359577919e+03 1.184761548113837307e+03 6.290371292549267190e-01
1.755619297312447147e+00 2.920212097310977242e+03 1.308263149925362541e+03 7.148388813722336144e-01
1.833011735336155912e+00 3.109588218176189912e+03 1.451987314090763221e+03 8.006406334895403987e-01
1.910404173359864455e+00 3.305463315325254371e+03 1.617480729448568354e+03 8.864423856068470720e-01
1.987796611383573220e+00 3.508488297930646695e+03 1.806467784418384326e+03 9.722441377241539673e-01
2.065189049407281985e+00 3.719335196231136706e+03 2.011140554174655790e+03 9.693111621708740966e-01
