# density  energy_density  pressure   sound_speed_squared  [All in nuclear units]
2.720000000000000022e-14 2.529924618736292620e-11 1.061056609100270887e-19 3.766610435412189122e-08
1.269999999999999890e-13 1.181251617980081254e-10 4.870113551826584858e-18 6.497781477172163475e-08
6.929999999999999754e-13 6.445728594625782745e-10 1.018299070687946017e-16 3.033770597342807186e-07
6.295000000000000137e-12 5.855111460395753757e-09 5.487150723824490656e-15 1.763710043904196507e-06
1.581000000000000150e-11 1.470523320212576141e-08 2.904239460150760759e-14 3.559434472327477622e-06
3.971999999999999958e-11 3.694456170323160790e-08 1.439340266754906811e-13 6.772854871245677111e-06
9.975999999999999982e-11 9.278976412613005154e-08 6.812143616221268841e-13 1.246890511177539320e-05
2.505999999999999928e-10 2.330928829758143313e-07 3.107749196951638608e-12 2.212095130576091967e-05
6.294000000000000186e-10 5.854398883216247602e-07 1.363250409771533549e-11 3.761981047239428883e-05
1.581000000000000021e-09 1.470619631082054101e-06 5.726014178088476303e-11 6.095350986710739404e-05
3.971999999999999932e-09 3.694861084648016046e-06 2.210019573374265380e-10 8.628023653304385055e-05
5.000000000000000105e-09 4.651201787816927976e-06 3.071485916280120014e-10 9.387863480799757518e-05
9.975999999999999465e-09 9.280587964640925786e-06 8.385361004129998845e-10 1.356922228656245837e-04
1.989999999999999952e-08 1.851419242998081003e-05 2.287763168863418088e-09 1.782101978513718314e-04
3.972999999999999908e-08 3.696699295748789187e-05 6.061583099087538954e-09 2.308134738384234820e-04
7.925999999999999637e-08 7.375765469301719828e-05 1.575347858094044765e-08 2.960532096713864875e-04
1.580999999999999930e-07 1.471491184379128891e-04 3.910429618672550719e-08 3.402859755131850544e-04
1.991000000000000027e-07 1.853209783927820692e-04 5.252045687899177454e-08 3.626488188833278743e-04
3.155999999999999938e-07 2.938002528823880299e-04 9.730770378831954314e-08 4.630767356912104081e-04
5.000999999999999849e-07 4.656344063839075714e-04 1.837494945860225819e-07 5.430301232045120323e-04
6.295999999999999732e-07 5.862651417037388971e-04 2.503103884558263872e-07 5.605192962670089638e-04
9.666999999999999941e-07 9.003386739730535665e-04 4.324450868778576936e-07 5.993081670211623108e-04
1.531999999999999901e-06 1.427170885631398036e-03 7.780217275717420968e-07 7.125938556504039095e-04
2.506999999999999883e-06 2.336134972129507662e-03 1.471005394641589826e-06 8.121876172121876309e-04
3.974000000000000407e-06 3.704315759716615697e-03 2.695705763844323844e-06 9.780674166779417152e-04
4.830000000000000343e-06 4.502887798316278223e-03 3.503988717694660908e-06 1.046253037768318664e-03
6.080999999999999885e-06 5.670217999231269741e-03 4.731126407333307547e-06 1.056224360839501646e-03
7.930000000000000308e-06 7.396012414119570652e-03 6.599662989063778187e-06 1.109203753630785610e-03
9.982000000000000313e-06 9.311815711689977113e-03 8.879881089227186733e-06 1.271216815433141075e-03
1.256999999999999993e-05 1.172874412604260098e-02 1.207676739913533738e-05 1.374195438212825332e-03
1.521999999999999997e-05 1.420427250933824909e-02 1.547541302213394990e-05 1.371610497379100249e-03
1.991000000000000080e-05 1.858690797761085312e-02 2.160710455847765458e-05 1.426578142835871997e-03
2.506999999999999883e-05 2.341050104039446925e-02 2.908031724375689851e-05 1.672007475975408053e-03
2.790999999999999875e-05 2.606604784714952258e-02 3.357009132255487721e-05 1.709425557744154774e-03
3.806999999999999973e-05 3.556967988784798945e-02 4.986781576435106434e-05 1.720407281314112165e-03
5.063000000000000145e-05 4.732434580343149871e-02 7.073400252905581275e-05 1.829889149838781265e-03
6.592000000000000583e-05 6.164112392498975052e-02 9.765037643900635188e-05 1.930242980462695823e-03
8.433000000000000066e-05 7.888776783401378612e-02 1.317235490470395893e-04 2.021055815200022837e-03
1.062000000000000064e-04 9.938561165478684845e-02 1.740088341640037047e-04 2.104789529260958983e-03
1.321000000000000126e-04 1.236720406455826121e-01 2.260189757651373944e-04 2.178291718403657477e-03
1.623999999999999901e-04 1.520974545104751274e-01 2.888169908545388338e-04 2.240170365918073281e-03
1.689999999999999879e-04 1.582907717069566844e-01 3.027354772999506964e-04 2.254509350360745651e-03
1.758999999999999930e-04 1.647661861691531171e-01 3.173785841705756782e-04 2.268169273277113179e-03
1.830000000000000029e-04 1.714298948183871907e-01 3.325196584577469103e-04 2.276170334580628063e-03
1.901999999999999882e-04 1.781880600978280049e-01 3.479577791899843742e-04 2.292561569242367037e-03
1.977000000000000079e-04 1.852284385240466902e-01 3.641242634600037713e-04 2.299943765467868384e-03
2.054000000000000053e-04 1.924572004474696396e-01 3.808304060475003897e-04 2.322187632288155723e-03
2.079000000000000119e-04 1.948043378760714872e-01 3.864137987380476553e-04 2.435429768083530178e-03
2.081999999999999921e-04 1.950859988578999005e-01 3.870314100985603909e-04 1.950065624557156818e-03
2.090999999999999868e-04 1.959309855029948977e-01 3.881261957135444685e-04 6.411875526909013856e-04
2.159999999999999919e-04 2.024093317906446865e-01 3.940874488768042125e-04 1.199166870571831411e-03
2.231000000000000019e-04 2.090756740932291913e-01 4.013938420547467825e-04 9.928616047829054436e-04
2.311000000000000066e-04 2.165873044433437034e-01 4.085241694843774404e-04 9.056166966301716637e-04
2.401000000000000085e-04 2.250381721984245909e-01 4.159700687886608468e-04 8.565463878902855599e-04
2.500000000000000052e-04 2.343344406330727658e-01 4.237602369176299592e-04 8.194318812157330018e-04
2.642999999999999733e-04 2.477629128650125634e-01 4.345596643180389446e-04 7.890063723638815647e-04
3.052999999999999941e-04 2.862671839140227270e-01 4.644058706720978241e-04 7.612775562167708662e-04
3.533000000000000224e-04 3.313503829113090826e-01 4.987577676308450197e-04 7.626578558207241024e-04
4.075999999999999871e-04 3.823564017794535141e-01 5.381334366106255759e-04 7.813048116943254948e-04
4.679999999999999915e-04 4.390986251953180042e-01 5.832692638200615834e-04 8.096035963157804938e-04
5.341000000000000261e-04 5.012024644415256081e-01 6.346556894078133086e-04 8.452514814113673558e-04
6.059000000000000366e-04 5.686690698184251325e-01 6.930641302632923034e-04 8.862253587289389486e-04
7.661000000000000275e-04 7.192254882508629654e-01 8.328184776562496576e-04 9.702780530519144065e-04
1.262000000000000101e-03 1.185459127778160093e+00 1.338484980802662205e-03 1.198863597978450275e-03
1.894999999999999983e-03 1.780909071169781921e+00 2.123481960401060308e-03 1.437771491635827115e-03
2.673000000000000029e-03 2.513147344746868850e+00 3.261860252001994032e-03 1.671524566936786766e-03
3.605999999999999830e-03 3.391736073717691369e+00 4.828136641022434151e-03 1.893900408978071038e-03
4.709999999999999777e-03 4.431905410739045870e+00 6.903512974832482635e-03 2.096551352830673849e-03
7.496000000000000059e-03 7.058993649504918366e+00 1.289742191321638018e-02 2.466596387205546859e-03
1.119999999999999989e-02 1.055540362104863661e+01 2.212077014004794340e-02 2.809304433764861584e-03
1.600000000000000033e-02 1.509117352747679952e+01 3.559566804390756900e-02 3.132325055719984222e-03
2.206999999999999934e-02 2.083310616724802244e+01 5.457322122755020599e-02 3.477840948757840792e-03
2.947999999999999926e-02 2.785007348564149154e+01 8.049103664263126956e-02 3.909302116317729670e-03
4.268000000000000266e-02 4.036707211535221518e+01 1.353887601042819133e-01 4.862066536253286525e-03
6.219999999999999835e-02 5.891246509830522626e+01 2.419691225623893105e-01 6.630786177272363080e-03
7.316999999999999893e-02 6.935151695866235855e+01 3.161896974764099033e-01 7.588671314871411888e-03
7.595999999999999974e-02 7.200836722020332559e+01 3.371250777904805096e-01 8.170805199905812125e-03
7.685877551020407761e-02 7.286441679444688191e+01 3.442051586873925428e-01 8.370473701489199864e-03
7.775755102040816935e-02 7.372055016397797544e+01 3.514569439784614446e-01 8.570302101565265007e-03
7.865632653061224722e-02 7.457676834648579245e+01 3.588807001485412318e-01 8.770494258922404557e-03
7.955510204081632508e-02 7.543307234044185350e+01 3.664768687546267611e-01 8.971254032349039800e-03
8.045387755102040295e-02 7.628946312772976057e+01 3.742460665066569270e-01 9.172785280633578148e-03
8.135265306122449469e-02 7.714594167615869935e+01 3.821890853518024600e-01 9.375291862564425274e-03
8.225142857142857256e-02 7.800250894186613948e+01 3.903068925621196450e-01 9.578977636929992059e-03
8.315020408163265042e-02 7.885916587161770508e+01 3.986006308254760877e-01 9.784046462518687648e-03
8.404897959183672829e-02 7.971591340500690137e+01 4.070716183396698162e-01 9.990702198118921185e-03
8.494775510204082003e-02 8.057275247656352235e+01 4.157213489096849290e-01 1.019914870251911049e-02
8.584653061224489790e-02 8.142968401777250165e+01 4.245514920480406573e-01 1.040958983450764909e-02
8.674530612244897576e-02 8.228670895900989990e+01 4.335638930782096945e-01 1.062222945287295654e-02
8.764408163265305363e-02 8.314382823139993661e+01 4.427605732410920814e-01 1.083727141640344720e-02
8.854285714285714537e-02 8.400104276859617869e+01 4.521437298045485886e-01 1.105491958388752326e-02
8.944163265306122323e-02 8.485835350849247050e+01 4.617157361760075296e-01 1.127537781411359213e-02
9.034040816326530110e-02 8.571576139486531076e+01 4.714791420181738690e-01 1.149884996587006818e-02
9.123918367346939284e-02 8.657326737895299118e+01 4.814366733678765442e-01 1.172553989794535879e-02
9.213795918367347071e-02 8.743087242097257672e+01 4.915912327581040131e-01 1.195565146912787660e-02
9.303673469387754857e-02 8.828857749158008517e+01 5.019458993432881488e-01 1.218938853820602554e-02
9.393551020408162644e-02 8.914638357327456220e+01 5.125039290279020943e-01 1.242695496396821996e-02
9.483428571428570431e-02 9.000429166175001683e+01 5.232687545984501254e-01 1.266855460520286553e-02
9.573306122448979605e-02 9.086230276719739152e+01 5.342439858589353996e-01 1.291439132069838180e-02
9.663183673469387391e-02 9.172041791555874113e+01 5.454334097698965156e-01 1.316466896924316406e-02
9.753061224489795178e-02 9.257863814973661931e+01 5.568409905911158031e-01 1.341959140962562490e-02
9.842938775510204352e-02 9.343696453075897068e+01 5.684708700281035920e-01 1.367936250063418561e-02
9.932816326530612139e-02 9.429539813890443156e+01 5.803273673824733692e-01 1.394418610105723974e-02
1.002269387755101993e-01 9.515394007478705873e+01 5.924149797063295031e-01 1.421426606968321203e-02
1.011257142857142910e-01 9.601259146040401049e+01 6.047383819607897726e-01 1.448980626530050296e-02
1.020244897959183689e-01 9.687135344014738791e+01 6.173024271787759254e-01 1.477101054669752167e-02
1.029232653061224467e-01 9.773022718178201274e+01 6.301121466322100462e-01 1.505808277266267384e-02
1.038220408163265246e-01 9.858921387739006548e+01 6.431727500037554002e-01 1.535122680198437901e-02
1.047208163265306025e-01 9.944831474428507079e+01 6.564896255632499678e-01 1.565064649345104461e-02
1.056195918367346942e-01 1.003075310258957273e+02 6.700683403489834378e-01 1.595654570585107804e-02
1.065183673469387721e-01 1.011668639926208755e+02 6.839146403539710928e-01 1.626912829797288670e-02
1.074171428571428499e-01 1.020263149426584732e+02 6.980344507173873447e-01 1.658859812860488323e-02
1.083159183673469417e-01 1.028858852028065769e+02 7.124338759213174610e-01 1.691515905653547674e-02
1.092146938775510195e-01 1.037455761292410585e+02 7.271191999929971228e-01 1.724901494055307641e-02
1.101134693877550974e-01 1.046053891082684260e+02 7.420968867127112345e-01 1.759036963944608789e-02
1.110122448979591891e-01 1.054653255570563601e+02 7.573735798275230691e-01 1.793942701200293074e-02
1.119110204081632531e-01 1.063253869243416858e+02 7.729561032710113855e-01 1.829639091701199677e-02
1.128097959183673449e-01 1.071855746911180631e+02 7.888514613892000371e-01 1.866146521326171592e-02
1.137085714285714227e-01 1.080458903713031447e+02 8.050668391728545981e-01 1.903485375954048348e-02
1.146073469387755006e-01 1.089063355123868462e+02 8.216096024963435163e-01 1.941676041463671898e-02
1.155061224489795924e-01 1.097669116960608022e+02 8.384872983632426502e-01 1.980738903733883158e-02
1.164048979591836702e-01 1.106276205388303850e+02 8.557076551588802538e-01 2.020694348643521654e-02
1.173036734693877481e-01 1.114884636926098835e+02 8.732785829100174757e-01 2.061562762071429689e-02
1.182024489795918398e-01 1.123494428453012262e+02 8.912081735518573300e-01 2.103364529896447829e-02
1.191012244897959177e-01 1.132105597213571286e+02 9.095047012025834210e-01 2.146120037997416644e-02
1.199999999999999956e-01 1.140718160823299741e+02 9.281766224456328152e-01 2.189849672253178434e-02
1.215778196604205413e-01 1.155841137398602001e+02 9.618886643845248052e-01 2.268527142978210218e-02
1.231556393208410871e-01 1.170968567059988032e+02 9.968064222472441394e-01 2.347944835321339602e-02
1.247334589812616329e-01 1.186100547996201158e+02 1.032941869566012194e+00 2.428080823006867339e-02
1.263112786416821787e-01 1.201237177407644339e+02 1.070306681459167741e+00 2.508913504862182384e-02
1.278890983021027106e-01 1.216378551506430625e+02 1.108912239261531596e+00 2.590421606434444024e-02
1.294669179625232702e-01 1.231524765517000901e+02 1.148769635158874980e+00 2.672584181361816608e-02
1.310447376229438021e-01 1.246675913677274394e+02 1.189889676823960185e+00 2.755380612509064978e-02
1.326225572833643618e-01 1.261832089240307937e+02 1.232282892051774770e+00 2.838790612877307995e-02
1.342003769437848937e-01 1.276993384476422904e+02 1.275959533391660461e+00 2.922794226296679745e-02
1.357781966042054533e-01 1.292159890675778797e+02 1.320929582774191369e+00 3.007371827910921072e-02
1.373560162646259852e-01 1.307331698151358808e+02 1.367202756130711849e+00 3.092504124461635182e-02
1.389338359250465449e-01 1.322508896242362368e+02 1.414788508003587797e+00 3.178172154380293907e-02
1.405116555854670768e-01 1.337691573317945313e+02 1.463696036145266666e+00 3.264357287695263121e-02
1.420894752458876364e-01 1.352879816781332067e+02 1.513934286104375859e+00 3.351041225761004078e-02
1.436672949063081683e-01 1.368073713074229829e+02 1.565511955797116217e+00 3.438206000816204644e-02
1.452451145667287280e-01 1.383273347681569021e+02 1.618437500062337220e+00 3.525833975377357793e-02
1.468229342271492599e-01 1.398478805136519441e+02 1.672719135198693197e+00 3.613907841473974064e-02
1.484007538875698196e-01 1.413690169025785508e+02 1.728364843482407487e+00 3.702410619731490854e-02
1.499785735479903515e-01 1.428907521995150489e+02 1.785382377664170628e+00 3.791325658307554552e-02
1.515563932084109111e-01 1.444130945755260598e+02 1.843779265443823201e+00 3.880636631687281457e-02
1.531342128688314430e-01 1.459360521087628229e+02 1.903562813921465535e+00 3.970327539342774492e-02
1.547120325292520027e-01 1.474596327850863133e+02 1.964740114023756812e+00 4.060382704262138071e-02
1.562898521896725346e-01 1.489838444987068726e+02 2.027318044904148131e+00 4.150786771352892729e-02
1.578676718500930942e-01 1.505086950528456669e+02 2.091303278315915115e+00 4.241524705724648847e-02
1.594454915105136261e-01 1.520341921604104698e+02 2.156702282956825645e+00 4.332581790855689896e-02
1.610233111709341858e-01 1.535603434446894369e+02 2.223521328784405338e+00 4.423943626648026151e-02
1.626011308313547177e-01 1.550871564400588056e+02 2.291766491300717856e+00 4.515596127375212654e-02
1.641789504917752773e-01 1.566146385927049209e+02 2.361443655805708808e+00 4.607525519527313346e-02
1.657567701521958092e-01 1.581427972613593624e+02 2.432558521618112923e+00 4.699718339557046320e-02
1.673345898126163689e-01 1.596716397180453271e+02 2.505116606263045664e+00 4.792161431531206245e-02
1.689124094730369008e-01 1.612011731488365456e+02 2.579123249625355108e+00 4.884841944691235838e-02
1.704902291334574604e-01 1.627314046546249813e+02 2.654583618067929862e+00 4.977747330926822478e-02
1.720680487938779923e-01 1.642623412518994144e+02 2.731502708514105482e+00 5.070865342166201023e-02
1.736458684542985520e-01 1.657939898735316717e+02 2.809885352493433519e+00 5.164184027686833517e-02
1.752236881147190839e-01 1.673263573695712125e+02 2.889736220150018742e+00 5.257691731350001840e-02
1.768015077751396436e-01 1.688594505080473880e+02 2.971059824212756606e+00 5.351377088762830636e-02
1.783793274355601755e-01 1.703932759757780104e+02 3.053860523926736903e+00 5.445229024371092685e-02
1.799571470959807351e-01 1.719278403791839480e+02 3.138142528945202514e+00 5.539236748486194711e-02
1.815349667564012670e-01 1.734631502451085794e+02 3.223909903181396697e+00 5.633389754249864406e-02
1.831127864168218267e-01 1.749992120216435865e+02 3.311166568619732686e+00 5.727677814537760620e-02
1.846906060772423586e-01 1.765360320789569641e+02 3.399916309085690980e+00 5.822090978811175765e-02
1.862684257376628905e-01 1.780736167101260605e+02 3.490162773973938481e+00 5.916619569909950527e-02
1.878462453980834501e-01 1.796119721319736016e+02 3.581909481934105521e+00 6.011254180799597419e-02
1.894240650585040098e-01 1.811511044859064441e+02 3.675159824513774431e+00 6.105985671269738291e-02
1.910018847189245417e-01 1.826910198387554090e+02 3.769917069758210726e+00 6.200805164588742840e-02
1.925797043793450736e-01 1.842317241836195478e+02 3.866184365766405229e+00 6.295704044117325648e-02
1.941575240397656332e-01 1.857732234407083070e+02 3.963964744203012813e+00 6.390673949883840521e-02
1.957353437001861929e-01 1.873155234581875561e+02 4.063261123765817828e+00 6.485706775124329415e-02
1.973131633606067248e-01 1.888586300130240545e+02 4.164076313608384261e+00 6.580794662790044602e-02
2.749190171695739537e-01 2.668039956039873459e+02 1.716634038049444655e+01 2.620790481669253436e-01
3.525248709785411272e-01 3.501890642201553305e+02 4.374075340848264659e+01 3.706182054791037905e-01
4.301307247875083561e-01 4.405260264090980513e+02 8.049158237937155036e+01 4.399953265750159437e-01
5.077365785964755851e-01 5.382976178792864630e+02 1.263174174754466037e+02 4.950606350346744566e-01
5.853424324054428141e-01 6.436667158138901641e+02 1.788072907422381377e+02 5.015295689710608240e-01
6.629482862144100430e-01 7.562914912558617289e+02 2.356458456638934535e+02 5.079985029074470804e-01
7.405541400233772720e-01 8.758250557361329811e+02 2.967483222875164302e+02 5.144674368438334477e-01
8.181599938323445009e-01 1.001986176886686280e+03 3.620576725258047759e+02 5.209363707802198151e-01
8.957658476413117299e-01 1.134542769999255597e+03 4.315374214437338765e+02 5.274053047166060715e-01
9.733717014502789588e-01 1.273300633961380981e+03 5.051668611399270503e+02 5.338742386529924389e-01
1.050977555259246188e+00 1.418095475066374775e+03 5.829376885504070742e+02 5.403431725893788062e-01
1.128583409068213195e+00 1.568787084695096155e+03 6.648515789016353210e+02 5.468121065257650626e-01
1.206189262877180424e+00 1.725254980025951454e+03 7.509183885856384677e+02 5.532810404621514300e-01
1.283795116686147653e+00 1.887395069177609685e+03 8.411547948976387943e+02 5.597499743985376863e-01
1.361400970495114882e+00 2.055117052480950861e+03 9.355832471334088041e+02 5.662189083349240537e-01
1.439006824304082111e+00 2.228342364650486616e+03 1.034231144714507536e+03 5.726878422713104211e-01
1.516612678113049340e+00 2.407002522207832953e+03 1.137130184164083403e+03 5.791567762076967885e-01
1.594218531922016568e+00 2.591037779765389587e+03 1.244315833868130994e+03 5.856257101440830448e-01
1.671824385730983797e+00 2.780396025302125054e+03 1.355826907045324333e+03 5.920946440804694122e-01
1.749430239539951026e+00 2.975031862888765318e+03 1.471705211238356924e+03 5.985635780168556686e-01
1.827036093348918255e+00 3.175024496092964455e+03 1.609490549463203479e+03 7.749784523160964111e-01
1.904641947157885484e+00 3.381602462548282347e+03 1.771931270500302162e+03 7.971248781543002204e-01
1.982247800966852713e+00 3.594980057646567275e+03 1.939517350258255192e+03 7.743688970040808472e-01
2.059853654775819720e+00 3.814924742126893761e+03 2.107261950783450629e+03 7.516129158538614741e-01
