# density  energy_density  pressure   sound_speed_squared  [All in nuclear units]
2.720000000000000022e-14 2.529924618736292620e-11 1.061056609100270887e-19 3.766610435412189122e-08
1.269999999999999890e-13 1.181251617980081254e-10 4.870113551826584858e-18 6.497781477172163475e-08
6.929999999999999754e-13 6.445728594625782745e-10 1.018299070687946017e-16 3.033770597342807186e-07
6.295000000000000137e-12 5.855111460395753757e-09 5.487150723824490656e-15 1.763710043904196507e-06
1.581000000000000150e-11 1.470523320212576141e-08 2.904239460150760759e-14 3.559434472327477622e-06
3.971999999999999958e-11 3.694456170323160790e-08 1.439340266754906811e-13 6.772854871245677111e-06
9.975999999999999982e-11 9.278976412613005154e-08 6.812143616221268841e-13 1.246890511177539320e-05
2.505999999999999928e-10 2.330928829758143313e-07 3.107749196951638608e-12 2.212095130576091967e-05
6.294000000000000186e-10 5.854398883216247602e-07 1.363250409771533549e-11 3.761981047239428883e-05
1.581000000000000021e-09 1.470619631082054101e-06 5.726014178088476303e-11 6.095350986710739404e-05
3.971999999999999932e-09 3.694861084648016046e-06 2.210019573374265380e-10 8.628023653304385055e-05
5.000000000000000105e-09 4.651201787816927976e-06 3.071485916280120014e-10 9.387863480799757518e-05
9.975999999999999465e-09 9.280587964640925786e-06 8.385361004129998845e-10 1.356922228656245837e-04
1.989999999999999952e-08 1.851419242998081003e-05 2.287763168863418088e-09 1.782101978513718314e-04
3.972999999999999908e-08 3.696699295748789187e-05 6.061583099087538954e-09 2.308134738384234820e-04
7.925999999999999637e-08 7.375765469301719828e-05 1.575347858094044765e-08 2.960532096713864875e-04
1.580999999999999930e-07 1.471491184379128891e-04 3.910429618672550719e-08 3.402859755131850544e-04
1.991000000000000027e-07 1.853209783927820692e-04 5.252045687899177454e-08 3.626488188833278743e-04
3.155999999999999938e-07 2.938002528823880299e-04 9.730770378831954314e-08 4.630767356912104081e-04
5.000999999999999849e-07 4.656344063839075714e-04 1.837494945860225819e-07 5.430301232045120323e-04
6.295999999999999732e-07 5.862651417037388971e-04 2.503103884558263872e-07 5.605192962670089638e-04
9.666999999999999941e-07 9.003386739730535665e-04 4.324450868778576936e-07 5.993081670211623108e-04
1.531999999999999901e-06 1.427170885631398036e-03 7.780217275717420968e-07 7.125938556504039095e-04
2.506999999999999883e-06 2.336134972129507662e-03 1.471005394641589826e-06 8.121876172121876309e-04
3.974000000000000407e-06 3.704315759716615697e-03 2.695705763844323844e-06 9.780674166779417152e-04
4.830000000000000343e-06 4.502887798316278223e-03 3.503988717694660908e-06 1.046253037768318664e-03
6.080999999999999885e-06 5.670217999231269741e-03 4.731126407333307547e-06 1.056224360839501646e-03
7.930000000000000308e-06 7.396012414119570652e-03 6.599662989063778187e-06 1.109203753630785610e-03
9.982000000000000313e-06 9.311815711689977113e-03 8.879881089227186733e-06 1.271216815433141075e-03
1.256999999999999993e-05 1.172874412604260098e-02 1.207676739913533738e-05 1.374195438212825332e-03
1.521999999999999997e-05 1.420427250933824909e-02 1.547541302213394990e-05 1.371610497379100249e-03
1.991000000000000080e-05 1.858690797761085312e-02 2.160710455847765458e-05 1.426578142835871997e-03
2.506999999999999883e-05 2.341050104039446925e-02 2.908031724375689851e-05 1.672007475975408053e-03
2.790999999999999875e-05 2.606604784714952258e-02 3.357009132255487721e-05 1.709425557744154774e-03
3.806999999999999973e-05 3.556967988784798945e-02 4.986781576435106434e-05 1.720407281314112165e-03
5.063000000000000145e-05 4.732434580343149871e-02 7.073400252905581275e-05 1.829889149838781265e-03
6.592000000000000583e-05 6.164112392498975052e-02 9.765037643900635188e-05 1.930242980462695823e-03
8.433000000000000066e-05 7.888776783401378612e-02 1.317235490470395893e-04 2.021055815200022837e-03
1.062000000000000064e-04 9.938561165478684845e-02 1.740088341640037047e-04 2.104789529260958983e-03
1.321000000000000126e-04 1.236720406455826121e-01 2.260189757651373944e-04 2.178291718403657477e-03
1.623999999999999901e-04 1.520974545104751274e-01 2.888169908545388338e-04 2.240170365918073281e-03
1.689999999999999879e-04 1.582907717069566844e-01 3.027354772999506964e-04 2.254509350360745651e-03
1.758999999999999930e-04 1.647661861691531171e-01 3.173785841705756782e-04 2.268169273277113179e-03
1.830000000000000029e-04 1.714298948183871907e-01 3.325196584577469103e-04 2.276170334580628063e-03
1.901999999999999882e-04 1.781880600978280049e-01 3.479577791899843742e-04 2.292561569242367037e-03
1.977000000000000079e-04 1.852284385240466902e-01 3.641242634600037713e-04 2.299943765467868384e-03
2.054000000000000053e-04 1.924572004474696396e-01 3.808304060475003897e-04 2.322187632288155723e-03
2.079000000000000119e-04 1.948043378760714872e-01 3.864137987380476553e-04 2.435429768083530178e-03
2.081999999999999921e-04 1.950859988578999005e-01 3.870314100985603909e-04 1.950065624557156818e-03
2.090999999999999868e-04 1.959309855029948977e-01 3.881261957135444685e-04 6.411875526909013856e-04
2.159999999999999919e-04 2.024093317906446865e-01 3.940874488768042125e-04 1.199166870571831411e-03
2.231000000000000019e-04 2.090756740932291913e-01 4.013938420547467825e-04 9.928616047829054436e-04
2.311000000000000066e-04 2.165873044433437034e-01 4.085241694843774404e-04 9.056166966301716637e-04
2.401000000000000085e-04 2.250381721984245909e-01 4.159700687886608468e-04 8.565463878902855599e-04
2.500000000000000052e-04 2.343344406330727658e-01 4.237602369176299592e-04 8.194318812157330018e-04
2.642999999999999733e-04 2.477629128650125634e-01 4.345596643180389446e-04 7.890063723638815647e-04
3.052999999999999941e-04 2.862671839140227270e-01 4.644058706720978241e-04 7.612775562167708662e-04
3.533000000000000224e-04 3.313503829113090826e-01 4.987577676308450197e-04 7.626578558207241024e-04
4.075999999999999871e-04 3.823564017794535141e-01 5.381334366106255759e-04 7.813048116943254948e-04
4.679999999999999915e-04 4.390986251953180042e-01 5.832692638200615834e-04 8.096035963157804938e-04
5.341000000000000261e-04 5.012024644415256081e-01 6.346556894078133086e-04 8.452514814113673558e-04
6.059000000000000366e-04 5.686690698184251325e-01 6.930641302632923034e-04 8.862253587289389486e-04
7.661000000000000275e-04 7.192254882508629654e-01 8.328184776562496576e-04 9.702780530519144065e-04
1.262000000000000101e-03 1.185459127778160093e+00 1.338484980802662205e-03 1.198863597978450275e-03
1.894999999999999983e-03 1.780909071169781921e+00 2.123481960401060308e-03 1.437771491635827115e-03
2.673000000000000029e-03 2.513147344746868850e+00 3.261860252001994032e-03 1.671524566936786766e-03
3.605999999999999830e-03 3.391736073717691369e+00 4.828136641022434151e-03 1.893900408978071038e-03
4.709999999999999777e-03 4.431905410739045870e+00 6.903512974832482635e-03 2.096551352830673849e-03
7.496000000000000059e-03 7.058993649504918366e+00 1.289742191321638018e-02 2.466596387205546859e-03
1.119999999999999989e-02 1.055540362104863661e+01 2.212077014004794340e-02 2.809304433764861584e-03
1.600000000000000033e-02 1.509117352747679952e+01 3.559566804390756900e-02 3.132325055719984222e-03
2.206999999999999934e-02 2.083310616724802244e+01 5.457322122755020599e-02 3.477840948757840792e-03
2.947999999999999926e-02 2.785007348564149154e+01 8.049103664263126956e-02 3.909302116317729670e-03
4.268000000000000266e-02 4.036707211535221518e+01 1.353887601042819133e-01 4.862066536253286525e-03
6.219999999999999835e-02 5.891246509830522626e+01 2.419691225623893105e-01 6.630786177272363080e-03
7.316999999999999893e-02 6.935151695866235855e+01 3.161896974764099033e-01 7.588671314871411888e-03
7.595999999999999974e-02 7.200836722020332559e+01 3.371250777904805096e-01 8.170805199905812125e-03
7.685877551020407761e-02 7.286441679213879752e+01 3.442047636976581226e-01 8.369550971945702647e-03
7.775755102040816935e-02 7.372055014853225430e+01 3.514550851391642361e-01 8.567805494065600450e-03
7.865632653061224722e-02 7.457676829155862208e+01 3.588757378260102326e-01 8.765742500529310685e-03
7.955510204081632508e-02 7.543307219785880591e+01 3.664665665051548560e-01 8.963535725600641976e-03
8.045387755102040295e-02 7.628946282108985599e+01 3.742275650202767645e-01 9.161358903543406415e-03
8.135265306122449469e-02 7.714594109436131930e+01 3.821588763757356455e-01 9.359385768621410889e-03
8.225142857142857256e-02 7.800250793256442705e+01 3.902607928035665141e-01 9.557790055098462287e-03
8.315020408163265042e-02 7.885916423460088254e+01 3.985337558333762464e-01 9.756745497238372700e-03
8.404897959183672829e-02 7.971591088551551252e+01 4.069783563650236080e-01 9.956425829304945546e-03
8.494775510204082003e-02 8.057274875853875074e+01 4.155953347439852452e-01 1.015700478556199812e-02
8.584653061224489790e-02 8.142967871704315996e+01 4.243855808393229290e-01 1.035865610027332864e-02
8.674530612244897576e-02 8.228670161641917957e+01 4.333501341241836613e-01 1.056155350770275267e-02
8.764408163265305363e-02 8.314381830587396394e+01 4.424901837587750242e-01 1.076587074211407709e-02
8.854285714285714537e-02 8.400102963015714863e+01 4.518070686757737486e-01 1.097178153777111573e-02
8.944163265306122323e-02 8.485833643121726766e+01 4.613022776681345305e-01 1.117945962893766507e-02
9.034040816326530110e-02 8.571573954979265864e+01 4.709774494792805521e-01 1.138907874987754587e-02
9.123918367346939284e-02 8.657323982694039444e+01 4.808343728956628316e-01 1.160081263485455982e-02
9.213795918367347071e-02 8.743083810550467661e+01 4.908749868416889539e-01 1.181483501813251728e-02
9.303673469387754857e-02 8.828853523153053118e+01 5.011013804770304558e-01 1.203131963397522687e-02
9.393551020408162644e-02 8.914633205562229534e+01 5.115157932963237952e-01 1.225044021664650068e-02
9.483428571428570431e-02 9.000422943425192557e+01 5.221206152312911630e-01 1.247237050041014039e-02
9.573306122448979605e-02 9.086222823101844881e+01 5.329183867553137777e-01 1.269728421952996678e-02
9.663183673469387391e-02 9.172032931786114318e+01 5.439117989904951322e-01 1.292535510826977284e-02
9.753061224489795178e-02 9.257853357622863655e+01 5.551036938172643209e-01 1.315675690089337761e-02
9.842938775510204352e-02 9.343684189820577046e+01 5.664970639865675173e-01 1.339166333166459319e-02
9.932816326530612139e-02 9.429525518760037528e+01 5.780950532347084447e-01 1.363024813484721084e-02
1.002269387755101993e-01 9.515377436099210229e+01 5.899009564009027873e-01 1.387268504470506002e-02
1.011257142857142910e-01 9.601240034874412288e+01 6.019182195476135977e-01 1.411914779550193719e-02
1.020244897959183689e-01 9.687113409598011060e+01 6.141504400837424216e-01 1.436981012150165271e-02
1.029232653061224467e-01 9.772997656352862350e+01 6.266013668907582934e-01 1.462484575696801348e-02
1.038220408163265246e-01 9.858892872883426151e+01 6.392749004518439859e-01 1.488442843616483678e-02
1.047208163265306025e-01 9.944799158683969154e+01 6.521750929841504396e-01 1.514873189335592431e-02
1.056195918367346942e-01 1.003071661508377019e+02 6.653061485742497450e-01 1.541792986280508641e-02
1.065183673469387721e-01 1.011664534532957020e+02 6.786724233168829334e-01 1.569219607877613346e-02
1.074171428571428499e-01 1.020258545466536333e+02 6.922784254571037188e-01 1.597170427553286365e-02
1.083159183673469417e-01 1.028853705040965849e+02 7.061288155359179974e-01 1.625662818733910470e-02
1.092146938775510195e-01 1.037450024203021712e+02 7.202284065395266888e-01 1.654714154845865134e-02
1.101134693877550974e-01 1.046047514121656690e+02 7.345821640522840479e-01 1.684341809315530875e-02
1.110122448979591891e-01 1.054646186195016497e+02 7.491952064134795863e-01 1.714563155569290287e-02
1.119110204081632531e-01 1.063246052057251347e+02 7.640728048780605075e-01 1.745395567033522499e-02
1.128097959183673449e-01 1.071847123585116606e+02 7.792203837814164480e-01 1.776856417134609761e-02
1.137085714285714227e-01 1.080449412904373219e+02 7.946435207083389907e-01 1.808963079298931548e-02
1.146073469387755006e-01 1.089052932396007662e+02 8.103479466662893982e-01 1.841732926952870109e-02
1.155061224489795924e-01 1.097657694702266156e+02 8.263395462630918065e-01 1.875183333522805612e-02
1.164048979591836702e-01 1.106263712732511095e+02 8.426243578891836616e-01 1.909331672435118227e-02
1.173036734693877481e-01 1.114870999668917051e+02 8.592085739045551840e-01 1.944195317116189856e-02
1.182024489795918398e-01 1.123479568972006604e+02 8.760985408305065336e-01 1.979791640992402055e-02
1.191012244897959177e-01 1.132089434386024180e+02 8.933007595463583472e-01 2.016138017490133952e-02
1.199999999999999956e-01 1.140700609944176875e+02 9.108218854912556450e-01 2.053251820035767103e-02
1.209738191078942315e-01 1.150032274622523261e+02 9.301738914004591408e-01 2.094345068241196262e-02
1.219476382157884536e-01 1.159365512812956212e+02 9.499169601009365138e-01 2.136352479297902451e-02
1.229214573236826896e-01 1.168700343527756615e+02 9.700598555080698349e-01 2.179286603041537262e-02
1.238952764315769117e-01 1.178036786177212321e+02 9.906114665875531688e-01 2.223160028520457937e-02
1.248690955394711477e-01 1.187374860570083541e+02 1.011580807977647378e+00 2.267985383446759901e-02
1.258429146473653837e-01 1.196714586914105070e+02 1.032977020612909635e+00 2.313775333625197814e-02
1.268167337552595919e-01 1.206055985816521314e+02 1.054809372349317265e+00 2.360542582360262986e-02
1.277905528631538279e-01 1.215399078284656298e+02 1.077087258590704311e+00 2.408299869841364765e-02
1.287643719710480639e-01 1.224743885726503265e+02 1.099820202916418577e+00 2.457059972506580106e-02
1.297381910789422998e-01 1.234090429951358345e+02 1.123017857710135958e+00 2.506835702384941841e-02
1.307120101868365358e-01 1.243438733170470556e+02 1.146690004789743256e+00 2.557639906417504688e-02
1.316858292947307441e-01 1.252788817997729041e+02 1.170846556038219966e+00 2.609485465757321876e-02
1.326596484026249800e-01 1.262140707450367785e+02 1.195497554035448440e+00 2.662385295048489559e-02
1.336334675105192160e-01 1.271494424949700033e+02 1.220653172690872257e+00 2.716352341684402302e-02
1.346072866184134520e-01 1.280849994321881411e+02 1.246323717876946180e+00 2.771399585045272382e-02
1.355811057263076602e-01 1.290207439798689677e+02 1.272519628063301544e+00 2.827540035715129726e-02
1.365549248342018962e-01 1.299566786018329765e+02 1.299251474951565566e+00 2.884786734678318823e-02
1.375287439420961322e-01 1.308928058026267536e+02 1.326529964110763515e+00 2.943152752495742028e-02
1.385025630499903682e-01 1.318291281276074756e+02 1.354365935613240257e+00 3.002651188458550779e-02
1.394763821578846041e-01 1.327656481630299368e+02 1.382770364671072949e+00 3.063295169732774964e-02
1.404502012657788124e-01 1.337023685361362197e+02 1.411754362272864549e+00 3.125097850461870663e-02
1.414240203736730483e-01 1.346392919152460763e+02 1.441329175820863950e+00 3.188072410871276019e-02
1.423978394815672843e-01 1.355764210098504350e+02 1.471506189768393646e+00 3.252232056342120592e-02
1.433716585894615203e-01 1.365137585707056189e+02 1.502296926257501442e+00 3.317590016467339420e-02
1.443454776973557285e-01 1.374513073899300082e+02 1.533713045756780247e+00 3.384159544088059107e-02
1.453192968052499645e-01 1.383890703011023788e+02 1.565766347699307115e+00 3.451953914310368354e-02
1.462931159131442005e-01 1.393270501793617484e+02 1.598468771120636678e+00 3.520986423502505541e-02
1.472669350210384365e-01 1.402652499415086425e+02 1.631832395296810789e+00 3.591270388272579939e-02
1.482407541289326725e-01 1.412036725461077538e+02 1.665869440382318878e+00 3.662819144426883444e-02
1.492145732368268807e-01 1.421423209935932164e+02 1.700592268047962818e+00 3.735646045908860846e-02
1.501883923447211167e-01 1.430811983263738796e+02 1.736013382118578363e+00 3.809764463718826044e-02
1.511622114526153526e-01 1.440203076289405146e+02 1.772145429210548295e+00 3.885187784814485290e-02
1.521360305605095886e-01 1.449596520279745846e+02 1.809001199369077550e+00 3.961929410992343081e-02
1.531098496684037968e-01 1.458992346924586343e+02 1.846593626705165470e+00 4.040002757750087853e-02
1.540836687762980328e-01 1.468390588337863676e+02 1.884935790032236991e+00 4.119421253129982446e-02
1.550574878841922688e-01 1.477791277058761352e+02 1.924040913502369721e+00 4.200198336543402300e-02
1.560313069920865048e-01 1.487194446052837122e+02 1.963922367242089129e+00 4.282347457576510946e-02
1.570051260999807408e-01 1.496600128713174342e+02 2.004593667987669470e+00 4.365882074777269195e-02
1.579789452078749490e-01 1.506008358861534191e+02 2.046068479719897582e+00 4.450815654423731504e-02
1.589527643157691850e-01 1.515419170749532043e+02 2.088360614298261364e+00 4.537161669273815506e-02
1.599265834236634209e-01 1.524832599059808160e+02 2.131484032094496772e+00 4.624933597296551624e-02
1.609004025315576569e-01 1.534248678907220551e+02 2.175452842625472005e+00 4.714144920384976539e-02
1.618742216394518652e-01 1.543667445840041523e+02 2.220281305185347609e+00 4.804809123050671898e-02
1.628480407473461011e-01 1.553088935841163050e+02 2.265983829476977185e+00 4.896939691100148789e-02
1.638218598552403371e-01 1.562513185329315490e+02 2.312574976242486535e+00 4.990550110293040520e-02
1.647956789631345731e-01 1.571940231160291717e+02 2.360069457893013478e+00 5.085653864982341704e-02
1.657694980710288091e-01 1.581370110628174928e+02 2.408482139137543498e+00 5.182264436736690877e-02
1.667433171789230173e-01 1.590802861466586933e+02 2.457828037610802152e+00 5.280395302944865948e-02
1.677171362868172533e-01 1.600238521849929043e+02 2.508122324500171363e+00 5.380059935402570909e-02
2.459269906483107782e-01 2.372604658908664419e+02 9.961399462372886759e+00 1.377343764408679450e-01
3.241368450098043308e-01 3.178869914403844632e+02 2.453311352780296062e+01 2.216681535277102155e-01
4.023466993712978557e-01 4.029102468269531983e+02 4.705529636687694506e+01 3.056019306145524306e-01
4.805565537327913805e-01 4.931171461389615160e+02 7.854072823351178556e+01 3.895357077013946734e-01
5.587664080942849054e-01 5.892136255381155934e+02 1.201668991254659176e+02 4.734694847882369162e-01
6.369762624557784303e-01 6.918827601946766208e+02 1.732782130011113679e+02 5.574032618750791590e-01
7.151861168172719552e-01 8.018145548783294316e+02 2.393960074950638273e+02 6.413370389619214018e-01
7.933959711787654800e-01 9.197238664333830229e+02 3.202331033524218356e+02 7.252708160487636446e-01
8.716058255402590049e-01 1.046362782048528970e+03 4.177116805264333834e+02 8.092045931356058874e-01
9.498156799017525298e-01 1.182486689581169685e+03 5.276063582048516309e+02 8.059081081548680192e-01
1.028025534263246055e+00 1.327950816574207010e+03 6.440827259414309083e+02 7.963229971712252331e-01
1.106235388624739580e+00 1.482503009008148183e+03 7.663608142127574183e+02 7.867378861875824470e-01
1.184445242986233104e+00 1.645897714977295209e+03 8.940742043812144857e+02 7.771527752039397718e-01
1.262655097347726629e+00 1.817898089464523537e+03 1.026870293077404085e+03 7.675676642202969857e-01
1.340864951709220154e+00 1.998275200319599435e+03 1.164409345960958717e+03 7.579825532366541996e-01
1.419074806070713679e+00 2.186807368951200260e+03 1.306363692887253592e+03 7.483974422530115245e-01
1.497284660432207204e+00 2.383279615416364322e+03 1.452417033585208173e+03 7.388123312693687383e-01
1.575494514793700729e+00 2.587483185733602568e+03 1.602263831177102929e+03 7.292272202857259522e-01
1.653704369155194254e+00 2.799215144891672935e+03 1.755608776580635777e+03 7.196421093020832771e-01
1.731914223516687779e+00 3.018278023025628499e+03 1.912166310884504355e+03 7.100569983184404910e-01
1.810124077878181303e+00 3.244479505119883015e+03 2.071660195720045067e+03 7.004718873347977048e-01
1.888333932239674828e+00 3.477632156719732848e+03 2.233823123809812387e+03 6.908867763511550297e-01
1.966543786601168353e+00 3.717553179715463557e+03 2.398396363488405768e+03 6.813016653675122436e-01
2.044753640962661656e+00 3.964064193460444130e+03 2.565129432215702309e+03 6.717165543838694575e-01
