# density  energy_density  pressure   sound_speed_squared  [All in nuclear units]
2.720000000000000022e-14 2.529924618736292620e-11 1.061056609100270887e-19 3.766610435412189122e-08
1.269999999999999890e-13 1.181251617980081254e-10 4.870113551826584858e-18 6.497781477172163475e-08
6.929999999999999754e-13 6.445728594625782745e-10 1.018299070687946017e-16 3.033770597342807186e-07
6.295000000000000137e-12 5.855111460395753757e-09 5.487150723824490656e-15 1.763710043904196507e-06
1.581000000000000150e-11 1.470523320212576141e-08 2.904239460150760759e-14 3.559434472327477622e-06
3.971999999999999958e-11 3.694456170323160790e-08 1.439340266754906811e-13 6.772854871245677111e-06
9.975999999999999982e-11 9.278976412613005154e-08 6.812143616221268841e-13 1.246890511177539320e-05
2.505999999999999928e-10 2.330928829758143313e-07 3.107749196951638608e-12 2.212095130576091967e-05
6.294000000000000186e-10 5.854398883216247602e-07 1.363250409771533549e-11 3.761981047239428883e-05
1.581000000000000021e-09 1.470619631082054101e-06 5.726014178088476303e-11 6.095350986710739404e-05
3.971999999999999932e-09 3.694861084648016046e-06 2.210019573374265380e-10 8.628023653304385055e-05
5.000000000000000105e-09 4.651201787816927976e-06 3.071485916280120014e-10 9.387863480799757518e-05
9.975999999999999465e-09 9.280587964640925786e-06 8.385361004129998845e-10 1.356922228656245837e-04
1.989999999999999952e-08 1.851419242998081003e-05 2.287763168863418088e-09 1.782101978513718314e-04
3.972999999999999908e-08 3.696699295748789187e-05 6.061583099087538954e-09 2.308134738384234820e-04
7.925999999999999637e-08 7.375765469301719828e-05 1.575347858094044765e-08 2.960532096713864875e-04
1.580999999999999930e-07 1.471491184379128891e-04 3.910429618672550719e-08 3.402859755131850544e-04
1.991000000000000027e-07 1.853209783927820692e-04 5.252045687899177454e-08 3.626488188833278743e-04
3.155999999999999938e-07 2.938002528823880299e-04 9.730770378831954314e-08 4.630767356912104081e-04
5.000999999999999849e-07 4.656344063839075714e-04 1.837494945860225819e-07 5.430301232045120323e-04
6.295999999999999732e-07 5.862651417037388971e-04 2.503103884558263872e-07 5.605192962670089638e-04
9.666999999999999941e-07 9.003386739730535665e-04 4.324450868778576936e-07 5.993081670211623108e-04
1.531999999999999901e-06 1.427170885631398036e-03 7.780217275717420968e-07 7.125938556504039095e-04
2.506999999999999883e-06 2.336134972129507662e-03 1.471005394641589826e-06 8.121876172121876309e-04
3.974000000000000407e-06 3.704315759716615697e-03 2.695705763844323844e-06 9.780674166779417152e-04
4.830000000000000343e-06 4.502887798316278223e-03 3.503988717694660908e-06 1.046253037768318664e-03
6.080999999999999885e-06 5.670217999231269741e-03 4.731126407333307547e-06 1.056224360839501646e-03
7.930000000000000308e-06 7.396012414119570652e-03 6.599662989063778187e-06 1.109203753630785610e-03
9.982000000000000313e-06 9.311815711689977113e-03 8.879881089227186733e-06 1.271216815433141075e-03
1.256999999999999993e-05 1.172874412604260098e-02 1.207676739913533738e-05 1.374195438212825332e-03
1.521999999999999997e-05 1.420427250933824909e-02 1.547541302213394990e-05 1.371610497379100249e-03
1.991000000000000080e-05 1.858690797761085312e-02 2.160710455847765458e-05 1.426578142835871997e-03
2.506999999999999883e-05 2.341050104039446925e-02 2.908031724375689851e-05 1.672007475975408053e-03
2.790999999999999875e-05 2.606604784714952258e-02 3.357009132255487721e-05 1.709425557744154774e-03
3.806999999999999973e-05 3.556967988784798945e-02 4.986781576435106434e-05 1.720407281314112165e-03
5.063000000000000145e-05 4.732434580343149871e-02 7.073400252905581275e-05 1.829889149838781265e-03
6.592000000000000583e-05 6.164112392498975052e-02 9.765037643900635188e-05 1.930242980462695823e-03
8.433000000000000066e-05 7.888776783401378612e-02 1.317235490470395893e-04 2.021055815200022837e-03
1.062000000000000064e-04 9.938561165478684845e-02 1.740088341640037047e-04 2.104789529260958983e-03
1.321000000000000126e-04 1.236720406455826121e-01 2.260189757651373944e-04 2.178291718403657477e-03
1.623999999999999901e-04 1.520974545104751274e-01 2.888169908545388338e-04 2.240170365918073281e-03
1.689999999999999879e-04 1.582907717069566844e-01 3.027354772999506964e-04 2.254509350360745651e-03
1.758999999999999930e-04 1.647661861691531171e-01 3.173785841705756782e-04 2.268169273277113179e-03
1.830000000000000029e-04 1.714298948183871907e-01 3.325196584577469103e-04 2.276170334580628063e-03
1.901999999999999882e-04 1.781880600978280049e-01 3.479577791899843742e-04 2.292561569242367037e-03
1.977000000000000079e-04 1.852284385240466902e-01 3.641242634600037713e-04 2.299943765467868384e-03
2.054000000000000053e-04 1.924572004474696396e-01 3.808304060475003897e-04 2.322187632288155723e-03
2.079000000000000119e-04 1.948043378760714872e-01 3.864137987380476553e-04 2.435429768083530178e-03
2.081999999999999921e-04 1.950859988578999005e-01 3.870314100985603909e-04 1.950065624557156818e-03
2.090999999999999868e-04 1.959309855029948977e-01 3.881261957135444685e-04 6.411875526909013856e-04
2.159999999999999919e-04 2.024093317906446865e-01 3.940874488768042125e-04 1.199166870571831411e-03
2.231000000000000019e-04 2.090756740932291913e-01 4.013938420547467825e-04 9.928616047829054436e-04
2.311000000000000066e-04 2.165873044433437034e-01 4.085241694843774404e-04 9.056166966301716637e-04
2.401000000000000085e-04 2.250381721984245909e-01 4.159700687886608468e-04 8.565463878902855599e-04
2.500000000000000052e-04 2.343344406330727658e-01 4.237602369176299592e-04 8.194318812157330018e-04
2.642999999999999733e-04 2.477629128650125634e-01 4.345596643180389446e-04 7.890063723638815647e-04
3.052999999999999941e-04 2.862671839140227270e-01 4.644058706720978241e-04 7.612775562167708662e-04
3.533000000000000224e-04 3.313503829113090826e-01 4.987577676308450197e-04 7.626578558207241024e-04
4.075999999999999871e-04 3.823564017794535141e-01 5.381334366106255759e-04 7.813048116943254948e-04
4.679999999999999915e-04 4.390986251953180042e-01 5.832692638200615834e-04 8.096035963157804938e-04
5.341000000000000261e-04 5.012024644415256081e-01 6.346556894078133086e-04 8.452514814113673558e-04
6.059000000000000366e-04 5.686690698184251325e-01 6.930641302632923034e-04 8.862253587289389486e-04
7.661000000000000275e-04 7.192254882508629654e-01 8.328184776562496576e-04 9.702780530519144065e-04
1.262000000000000101e-03 1.185459127778160093e+00 1.338484980802662205e-03 1.198863597978450275e-03
1.894999999999999983e-03 1.780909071169781921e+00 2.123481960401060308e-03 1.437771491635827115e-03
2.673000000000000029e-03 2.513147344746868850e+00 3.261860252001994032e-03 1.671524566936786766e-03
3.605999999999999830e-03 3.391736073717691369e+00 4.828136641022434151e-03 1.893900408978071038e-03
4.709999999999999777e-03 4.431905410739045870e+00 6.903512974832482635e-03 2.096551352830673849e-03
7.496000000000000059e-03 7.058993649504918366e+00 1.289742191321638018e-02 2.466596387205546859e-03
1.119999999999999989e-02 1.055540362104863661e+01 2.212077014004794340e-02 2.809304433764861584e-03
1.600000000000000033e-02 1.509117352747679952e+01 3.559566804390756900e-02 3.132325055719984222e-03
2.206999999999999934e-02 2.083310616724802244e+01 5.457322122755020599e-02 3.477840948757840792e-03
2.947999999999999926e-02 2.785007348564149154e+01 8.049103664263126956e-02 3.909302116317729670e-03
4.268000000000000266e-02 4.036707211535221518e+01 1.353887601042819133e-01 4.862066536253286525e-03
6.219999999999999835e-02 5.891246509830522626e+01 2.419691225623893105e-01 6.630786177272363080e-03
7.316999999999999893e-02 6.935151695866235855e+01 3.161896974764099033e-01 7.588671314871411888e-03
7.595999999999999974e-02 7.200836722020332559e+01 3.371250777904805096e-01 8.170805199905812125e-03
7.685877551020407761e-02 7.286441676492927400e+01 3.442001072727320365e-01 8.358673167360202577e-03
7.775755102040816935e-02 7.372054996761880830e+01 3.514333748290817683e-01 8.538847924019333721e-03
7.865632653061224722e-02 7.457676765352731252e+01 3.588184824944924411e-01 8.711682610728431475e-03
7.955510204081632508e-02 7.543307055764458369e+01 3.663493324384740069e-01 8.877530368332723493e-03
8.045387755102040295e-02 7.628945933114572142e+01 3.740201270485252749e-01 9.036744337677437428e-03
8.135265306122449469e-02 7.714593454755561197e+01 3.818253690247448429e-01 9.189677659607802668e-03
8.225142857142857256e-02 7.800249670864096174e+01 3.897598614842706088e-01 9.336683474969041663e-03
8.315020408163265042e-02 7.885914625004660650e+01 3.978187080743311177e-01 9.478114924606387270e-03
8.404897959183672829e-02 7.971588354668941179e+01 4.059973130927997387e-01 9.614325149365063675e-03
8.494775510204082003e-02 8.057270891792245493e+01 4.142913816152513640e-01 9.745667290090298529e-03
8.584653061224489790e-02 8.142962263248188037e+01 4.226969196276151308e-01 9.872494487627316018e-03
8.674530612244897576e-02 8.228662491322860717e+01 4.312102341636107061e-01 9.995159882821350733e-03
8.764408163265305363e-02 8.314371594169436719e+01 4.398279334462353307e-01 1.011401661651762859e-02
8.854285714285714537e-02 8.400089586244294537e+01 4.485469270326529756e-01 1.022941782956137205e-02
8.944163265306122323e-02 8.485816478725556067e+01 4.573644259619062402e-01 1.034171666279780875e-02
9.034040816326530110e-02 8.571552279915012207e+01 4.662779429049445645e-01 1.045126625707217156e-02
9.123918367346939284e-02 8.657296995624120939e+01 4.752852923165226118e-01 1.055841975322967946e-02
9.213795918367347071e-02 8.743050629545004426e+01 4.843845905885861836e-01 1.066353029211556877e-02
9.303673469387754857e-02 8.828813183607098836e+01 4.935742562048200943e-01 1.076695101457506194e-02
9.393551020408162644e-02 8.914584658320141841e+01 5.028530098960820593e-01 1.086903506145338837e-02
9.483428571428570431e-02 9.000365053104272306e+01 5.122198747964999965e-01 1.097013557359577222e-02
9.573306122448979605e-02 9.086154366607630095e+01 5.216741766000566605e-01 1.107060569184744464e-02
9.663183673469387391e-02 9.171952597012297304e+01 5.312155437175265504e-01 1.117079855705362980e-02
9.753061224489795178e-02 9.257759742328924801e+01 5.408439074336769403e-01 1.127106731005955535e-02
9.842938775510204352e-02 9.343575800680666532e+01 5.505595020646777416e-01 1.137176509171045242e-02
9.932816326530612139e-02 9.429400770576911839e+01 5.603628651157063212e-01 1.147324504285154347e-02
1.002269387755101993e-01 9.515234651177210878e+01 5.702548374387678143e-01 1.157586030432805786e-02
1.011257142857142910e-01 9.601077442545879137e+01 5.802365633907800024e-01 1.167996401698522674e-02
1.020244897959183689e-01 9.686929145897734372e+01 5.903094909920075795e-01 1.178590932166826907e-02
1.029232653061224467e-01 9.772789763835247356e+01 6.004753720849591581e-01 1.189404935922241599e-02
1.038220408163265246e-01 9.858659300577609486e+01 6.107362624938834639e-01 1.200473727049289861e-02
1.047208163265306025e-01 9.944537762181958840e+01 6.210945221850336928e-01 1.211832619632494112e-02
1.056195918367346942e-01 1.003042515675717397e+02 6.315528154278892137e-01 1.223516927756377118e-02
1.065183673469387721e-01 1.011632149467051960e+02 6.421141109575480010e-01 1.235561965505461643e-02
1.074171428571428499e-01 1.020222678874745554e+02 6.527816821385283852e-01 1.248003046964270280e-02
1.083159183673469417e-01 1.028814105446491567e+02 6.635591071302342492e-01 1.260875486217325619e-02
1.092146938775510195e-01 1.037406431013823749e+02 6.744502690543624501e-01 1.274214597349150949e-02
1.101134693877550974e-01 1.045999657710220987e+02 6.854593561645494493e-01 1.288055694444268512e-02
1.110122448979591891e-01 1.054593787988618487e+02 6.965908620185691236e-01 1.302434091587201768e-02
1.119110204081632531e-01 1.063188824638379941e+02 7.078495856534131603e-01 1.317385102862472096e-02
1.128097959183673449e-01 1.071784770801728826e+02 7.192406317636055313e-01 1.332944042354603648e-02
1.137085714285714227e-01 1.080381629989678913e+02 7.307694108831058744e-01 1.349146224148118148e-02
1.146073469387755006e-01 1.088979406097464988e+02 7.424416395711889161e-01 1.366026962327538882e-02
1.155061224489795924e-01 1.097578103419517390e+02 7.542633406026841847e-01 1.383621570977388616e-02
1.164048979591836702e-01 1.106177726663971299e+02 7.662408431629846861e-01 1.401965364182189595e-02
1.173036734693877481e-01 1.114778280966756085e+02 7.783807830482425416e-01 1.421093656026464931e-02
1.182024489795918398e-01 1.123379771905257485e+02 7.906901028711804669e-01 1.441041760594737389e-02
1.191012244897959177e-01 1.131982205511589257e+02 8.031760522729601837e-01 1.461844991971529562e-02
1.199999999999999956e-01 1.140585588285471630e+02 8.158461881415646211e-01 1.483538664241364560e-02
1.234379427614839125e-01 1.173503693536720789e+02 8.661594341366477545e-01 1.573318519402714180e-02
1.268758855229678295e-01 1.206436236602257850e+02 9.195408799591517912e-01 1.668529242557606831e-02
1.303138282844517604e-01 1.239383682577290813e+02 9.761756708492426160e-01 1.769337276106014087e-02
1.337517710459356912e-01 1.272346521638784225e+02 1.036254854549860216e+00 1.875908270420592605e-02
1.371897138074195943e-01 1.305325268628874937e+02 1.099975387011483008e+00 1.988406825026936206e-02
1.406276565689035252e-01 1.338320462680647438e+02 1.167540131194038766e+00 2.106996204726367325e-02
1.440655993303874560e-01 1.371332666879285682e+02 1.239157848186073441e+00 2.231838032013936865e-02
1.475035420918713591e-01 1.404362467952479108e+02 1.315043179895679426e+00 2.363091957020958117e-02
1.509414848533552900e-01 1.437410475984614777e+02 1.395416622597640988e+00 2.500915306119615850e-02
1.543794276148391931e-01 1.470477324149878484e+02 1.480504490647719162e+00 2.645462710262403913e-02
1.578173703763231239e-01 1.503563668459904079e+02 1.570538869698816953e+00 2.796885714087948491e-02
1.612553131378070548e-01 1.536670187522032336e+02 1.665757558775555092e+00 2.955332366804287389e-02
1.646932558992909579e-01 1.569797582304588275e+02 1.766404000584325118e+00 3.120946795859128042e-02
1.681311986607748887e-01 1.602946575905954205e+02 1.872727199455627156e+00 3.293868764422326623e-02
1.715691414222588196e-01 1.636117913324439144e+02 1.984981626335078797e+00 3.474233213737801945e-02
1.750070841837427227e-01 1.669312361226219821e+02 2.103427110259451283e+00 3.662169791449778472e-02
1.784450269452266535e-01 1.702530707708850173e+02 2.228328715774895219e+00 3.857802367071101052e-02
1.818829697067105844e-01 1.735773762057982594e+02 2.359956605776776684e+00 4.061248535839465795e-02
1.853209124681944875e-01 1.769042354495166194e+02 2.498585889274807403e+00 4.272619112301054983e-02
1.887588552296784183e-01 1.802337335914695871e+02 2.644496453613918163e+00 4.492017615070276887e-02
1.921967979911623492e-01 1.835659577607644337e+02 2.797972780711278862e+00 4.719539744340320309e-02
1.956347407526462523e-01 1.869009970971329437e+02 2.959303746903669818e+00 4.955272853862343480e-02
1.990726835141301831e-01 1.902389427202588195e+02 3.128782406037681874e+00 5.199295419272738361e-02
2.025106262756141140e-01 1.935798876973331915e+02 3.306705755478789310e+00 5.451676504828998487e-02
2.059485690370980171e-01 1.969239270086958129e+02 3.493374484765076726e+00 5.712475230817021937e-02
2.093865117985819480e-01 2.002711575114323637e+02 3.689092706688080536e+00 5.981740244117324939e-02
2.128244545600658788e-01 2.036216779008032347e+02 3.894167670647937562e+00 6.259509194666920684e-02
2.162623973215497819e-01 2.069755886693950231e+02 4.108909458203909182e+00 6.545808220828901181e-02
2.197003400830337128e-01 2.103329920638897761e+02 4.333630660825436465e+00 6.840651446985912543e-02
2.231382828445176436e-01 2.136939920393637635e+02 4.568646039944590065e+00 7.144040497007693447e-02
2.265762256060015467e-01 2.170586942110325595e+02 4.814272169519557387e+00 7.455964027610961775e-02
2.300141683674854776e-01 2.204272058033747612e+02 5.070827061442032324e+00 7.776397286032195322e-02
2.334521111289694084e-01 2.237996355965764508e+02 5.338629774260859939e+00 8.105301696874889217e-02
2.368900538904533115e-01 2.271760938702547321e+02 5.618000005851896184e+00 8.442624483474615860e-02
2.403279966519372424e-01 2.305566923444260681e+02 5.909257670841505217e+00 8.788298329648751295e-02
2.437659394134211732e-01 2.339415441177114019e+02 6.212722463790722571e+00 9.142241088267166749e-02
2.472038821749050763e-01 2.373307636027752494e+02 6.528713409371089682e+00 9.504355543696881015e-02
2.506418249363889794e-01 2.407244664590238301e+02 6.857548401013672468e+00 9.874529235838168384e-02
2.540797676978729380e-01 2.441227695226016579e+02 7.199543729792497793e+00 1.025263435418483915e-01
2.575177104593568411e-01 2.475257907337521885e+02 7.555013605614679939e+00 1.063852771108483308e-01
2.609556532208407997e-01 2.509336490616316837e+02 7.924269673136969061e+00 1.103205080432918539e-01
2.643935959823247028e-01 2.543464644266903463e+02 8.307620525207855877e+00 1.143302997964289608e-01
2.678315387438086059e-01 2.577643576207708520e+02 8.705371217058395672e+00 1.184127670523267978e-01
2.712694815052925090e-01 2.611874502250981323e+02 9.117822784930808666e+00 1.225658797082841839e-01
2.747074242667764676e-01 2.646158645263828930e+02 9.545271773337345778e+00 1.267874682484370352e-01
2.781453670282603707e-01 2.680497234312857699e+02 9.988009775701421233e+00 1.310752306462489025e-01
2.815833097897443293e-01 2.714891503795481640e+02 1.044632299373262185e+01 1.354267409489070817e-01
2.850212525512282324e-01 2.749342692561305057e+02 1.092049182153463072e+01 1.398394597122599170e-01
2.884591953127121355e-01 2.783852043027592913e+02 1.141079046114679763e+01 1.443107464585328126e-01
3.642049260206159378e-01 3.563597382483748675e+02 2.818519623284909414e+01 2.821752047528230389e-01
4.399506567285197955e-01 4.389650897480838694e+02 5.741742835277737100e+01 4.200396630471133763e-01
5.156963874364236533e-01 5.277096639756859986e+02 1.011313011027244499e+02 5.579041213414037692e-01
5.914421181443274556e-01 6.239886623122215497e+02 1.619110518971986608e+02 6.957685796356939401e-01
6.671878488522312578e-01 7.291135740462508465e+02 2.365639286894061399e+02 7.231090123703378669e-01
7.429335795601350600e-01 8.431943363878358468e+02 3.175995564627318686e+02 6.995812364334059730e-01
8.186793102680389733e-01 9.657123077026857345e+02 4.017644472768357673e+02 6.760534604964739680e-01
8.944250409759427756e-01 1.096140473714953714e+03 4.883105699174698771e+02 6.525256845595420740e-01
9.701707716838465778e-01 1.233980191182741237e+03 5.765454015504075187e+02 6.289979086226101801e-01
1.045916502391750491e+00 1.378758697721120143e+03 6.658276890967806594e+02 6.054701326856781751e-01
1.121662233099654404e+00 1.530027059278883826e+03 7.555637736938039097e+02 5.819423567487462812e-01
1.197407963807558096e+00 1.687358440243203177e+03 8.452043469412799368e+02 5.584145808118143872e-01
1.273153694515461787e+00 1.850346618081370707e+03 9.342415484329279707e+02 5.348868048748824933e-01
1.348899425223365700e+00 2.018649652366719465e+03 1.025502909049525670e+03 5.493674952225379160e-01
1.424645155931269613e+00 2.192322693401611559e+03 1.131190466348334667e+03 6.647573529787325075e-01
1.500390886639173527e+00 2.372216474675561585e+03 1.261479918807543072e+03 7.801472107349272100e-01
1.576136617347077440e+00 2.559310547979225248e+03 1.418637017967295378e+03 8.955370684911216905e-01
1.651882348054980909e+00 2.754596512443710708e+03 1.595361136431007480e+03 9.136845677570432089e-01
1.727628078762884822e+00 2.958178067063974595e+03 1.765793053637263938e+03 7.658331555539384938e-01
1.803373809470788736e+00 3.168657817731236719e+03 1.911027188224080419e+03 6.179817433508338897e-01
1.879119540178692649e+00 3.384621028201193894e+03 2.028241283819840191e+03 4.701303311477291191e-01
1.954865270886596562e+00 3.604667334783034676e+03 2.115243170913408903e+03 3.222789189446244595e-01
2.030611001594500031e+00 3.827433515573929981e+03 2.170469305861399334e+03 1.744275067415206326e-01
2.106356732302403945e+00 4.051894161963720308e+03 2.210021670833871667e+03 1.779870855966365906e-01
