# density  energy_density  pressure   sound_speed_squared  [All in nuclear units]
2.720000000000000022e-14 2.529924618736292620e-11 1.061056609100270887e-19 3.766610435412189122e-08
1.269999999999999890e-13 1.181251617980081254e-10 4.870113551826584858e-18 6.497781477172163475e-08
6.929999999999999754e-13 6.445728594625782745e-10 1.018299070687946017e-16 3.033770597342807186e-07
6.295000000000000137e-12 5.855111460395753757e-09 5.487150723824490656e-15 1.763710043904196507e-06
1.581000000000000150e-11 1.470523320212576141e-08 2.904239460150760759e-14 3.559434472327477622e-06
3.971999999999999958e-11 3.694456170323160790e-08 1.439340266754906811e-13 6.772854871245677111e-06
9.975999999999999982e-11 9.278976412613005154e-08 6.812143616221268841e-13 1.246890511177539320e-05
2.505999999999999928e-10 2.330928829758143313e-07 3.107749196951638608e-12 2.212095130576091967e-05
6.294000000000000186e-10 5.854398883216247602e-07 1.363250409771533549e-11 3.761981047239428883e-05
1.581000000000000021e-09 1.470619631082054101e-06 5.726014178088476303e-11 6.095350986710739404e-05
3.971999999999999932e-09 3.694861084648016046e-06 2.210019573374265380e-10 8.628023653304385055e-05
5.000000000000000105e-09 4.651201787816927976e-06 3.071485916280120014e-10 9.387863480799757518e-05
9.975999999999999465e-09 9.280587964640925786e-06 8.385361004129998845e-10 1.356922228656245837e-04
1.989999999999999952e-08 1.851419242998081003e-05 2.287763168863418088e-09 1.782101978513718314e-04
3.972999999999999908e-08 3.696699295748789187e-05 6.061583099087538954e-09 2.308134738384234820e-04
7.925999999999999637e-08 7.375765469301719828e-05 1.575347858094044765e-08 2.960532096713864875e-04
1.580999999999999930e-07 1.471491184379128891e-04 3.910429618672550719e-08 3.402859755131850544e-04
1.991000000000000027e-07 1.853209783927820692e-04 5.252045687899177454e-08 3.626488188833278743e-04
3.155999999999999938e-07 2.938002528823880299e-04 9.730770378831954314e-08 4.630767356912104081e-04
5.000999999999999849e-07 4.656344063839075714e-04 1.837494945860225819e-07 5.430301232045120323e-04
6.295999999999999732e-07 5.862651417037388971e-04 2.503103884558263872e-07 5.605192962670089638e-04
9.666999999999999941e-07 9.003386739730535665e-04 4.324450868778576936e-07 5.993081670211623108e-04
1.531999999999999901e-06 1.427170885631398036e-03 7.780217275717420968e-07 7.125938556504039095e-04
2.506999999999999883e-06 2.336134972129507662e-03 1.471005394641589826e-06 8.121876172121876309e-04
3.974000000000000407e-06 3.704315759716615697e-03 2.695705763844323844e-06 9.780674166779417152e-04
4.830000000000000343e-06 4.502887798316278223e-03 3.503988717694660908e-06 1.046253037768318664e-03
6.080999999999999885e-06 5.670217999231269741e-03 4.731126407333307547e-06 1.056224360839501646e-03
7.930000000000000308e-06 7.396012414119570652e-03 6.599662989063778187e-06 1.109203753630785610e-03
9.982000000000000313e-06 9.311815711689977113e-03 8.879881089227186733e-06 1.271216815433141075e-03
1.256999999999999993e-05 1.172874412604260098e-02 1.207676739913533738e-05 1.374195438212825332e-03
1.521999999999999997e-05 1.420427250933824909e-02 1.547541302213394990e-05 1.371610497379100249e-03
1.991000000000000080e-05 1.858690797761085312e-02 2.160710455847765458e-05 1.426578142835871997e-03
2.506999999999999883e-05 2.341050104039446925e-02 2.908031724375689851e-05 1.672007475975408053e-03
2.790999999999999875e-05 2.606604784714952258e-02 3.357009132255487721e-05 1.709425557744154774e-03
3.806999999999999973e-05 3.556967988784798945e-02 4.986781576435106434e-05 1.720407281314112165e-03
5.063000000000000145e-05 4.732434580343149871e-02 7.073400252905581275e-05 1.829889149838781265e-03
6.592000000000000583e-05 6.164112392498975052e-02 9.765037643900635188e-05 1.930242980462695823e-03
8.433000000000000066e-05 7.888776783401378612e-02 1.317235490470395893e-04 2.021055815200022837e-03
1.062000000000000064e-04 9.938561165478684845e-02 1.740088341640037047e-04 2.104789529260958983e-03
1.321000000000000126e-04 1.236720406455826121e-01 2.260189757651373944e-04 2.178291718403657477e-03
1.623999999999999901e-04 1.520974545104751274e-01 2.888169908545388338e-04 2.240170365918073281e-03
1.689999999999999879e-04 1.582907717069566844e-01 3.027354772999506964e-04 2.254509350360745651e-03
1.758999999999999930e-04 1.647661861691531171e-01 3.173785841705756782e-04 2.268169273277113179e-03
1.830000000000000029e-04 1.714298948183871907e-01 3.325196584577469103e-04 2.276170334580628063e-03
1.901999999999999882e-04 1.781880600978280049e-01 3.479577791899843742e-04 2.292561569242367037e-03
1.977000000000000079e-04 1.852284385240466902e-01 3.641242634600037713e-04 2.299943765467868384e-03
2.054000000000000053e-04 1.924572004474696396e-01 3.808304060475003897e-04 2.322187632288155723e-03
2.079000000000000119e-04 1.948043378760714872e-01 3.864137987380476553e-04 2.435429768083530178e-03
2.081999999999999921e-04 1.950859988578999005e-01 3.870314100985603909e-04 1.950065624557156818e-03
2.090999999999999868e-04 1.959309855029948977e-01 3.881261957135444685e-04 6.411875526909013856e-04
2.159999999999999919e-04 2.024093317906446865e-01 3.940874488768042125e-04 1.199166870571831411e-03
2.231000000000000019e-04 2.090756740932291913e-01 4.013938420547467825e-04 9.928616047829054436e-04
2.311000000000000066e-04 2.165873044433437034e-01 4.085241694843774404e-04 9.056166966301716637e-04
2.401000000000000085e-04 2.250381721984245909e-01 4.159700687886608468e-04 8.565463878902855599e-04
2.500000000000000052e-04 2.343344406330727658e-01 4.237602369176299592e-04 8.194318812157330018e-04
2.642999999999999733e-04 2.477629128650125634e-01 4.345596643180389446e-04 7.890063723638815647e-04
3.052999999999999941e-04 2.862671839140227270e-01 4.644058706720978241e-04 7.612775562167708662e-04
3.533000000000000224e-04 3.313503829113090826e-01 4.987577676308450197e-04 7.626578558207241024e-04
4.075999999999999871e-04 3.823564017794535141e-01 5.381334366106255759e-04 7.813048116943254948e-04
4.679999999999999915e-04 4.390986251953180042e-01 5.832692638200615834e-04 8.096035963157804938e-04
5.341000000000000261e-04 5.012024644415256081e-01 6.346556894078133086e-04 8.452514814113673558e-04
6.059000000000000366e-04 5.686690698184251325e-01 6.930641302632923034e-04 8.862253587289389486e-04
7.661000000000000275e-04 7.192254882508629654e-01 8.328184776562496576e-04 9.702780530519144065e-04
1.262000000000000101e-03 1.185459127778160093e+00 1.338484980802662205e-03 1.198863597978450275e-03
1.894999999999999983e-03 1.780909071169781921e+00 2.123481960401060308e-03 1.437771491635827115e-03
2.673000000000000029e-03 2.513147344746868850e+00 3.261860252001994032e-03 1.671524566936786766e-03
3.605999999999999830e-03 3.391736073717691369e+00 4.828136641022434151e-03 1.893900408978071038e-03
4.709999999999999777e-03 4.431905410739045870e+00 6.903512974832482635e-03 2.096551352830673849e-03
7.496000000000000059e-03 7.058993649504918366e+00 1.289742191321638018e-02 2.466596387205546859e-03
1.119999999999999989e-02 1.055540362104863661e+01 2.212077014004794340e-02 2.809304433764861584e-03
1.600000000000000033e-02 1.509117352747679952e+01 3.559566804390756900e-02 3.132325055719984222e-03
2.206999999999999934e-02 2.083310616724802244e+01 5.457322122755020599e-02 3.477840948757840792e-03
2.947999999999999926e-02 2.785007348564149154e+01 8.049103664263126956e-02 3.909302116317729670e-03
4.268000000000000266e-02 4.036707211535221518e+01 1.353887601042819133e-01 4.862066536253286525e-03
6.219999999999999835e-02 5.891246509830522626e+01 2.419691225623893105e-01 6.630786177272363080e-03
7.316999999999999893e-02 6.935151695866235855e+01 3.161896974764099033e-01 7.588671314871411888e-03
7.595999999999999974e-02 7.200836722020332559e+01 3.371250777904805096e-01 8.170805199905812125e-03
7.685877551020407761e-02 7.286441684650364436e+01 3.442140674360260055e-01 8.391285291746089156e-03
7.775755102040816935e-02 7.372055050914617880e+01 3.514983155987985719e-01 8.625318964366014002e-03
7.865632653061224722e-02 7.457676955944576491e+01 3.589892315587586702e-01 8.872332637346097908e-03
7.955510204081632508e-02 7.543307544544566667e+01 3.666977386798004890e-01 9.131752730266878143e-03
8.045387755102040295e-02 7.628946970314883913e+01 3.746342743364362571e-01 9.403005662708871157e-03
8.135265306122449469e-02 7.714595394813974849e+01 3.828087898355088670e-01 9.685517854252607278e-03
8.225142857142857256e-02 7.800252986757563178e+01 3.912307503308394274e-01 9.978715724478601223e-03
8.315020408163265042e-02 7.885919921252727249e+01 3.999091347289506770e-01 1.028202569296738159e-02
8.404897959183672829e-02 7.971596379064922644e+01 4.088524355842161340e-01 1.059487417929947349e-02
8.494775510204082003e-02 8.057282545916312699e+01 4.180686589819897492e-01 1.091668760305540900e-02
8.584653061224489790e-02 8.142978611813592238e+01 4.275653244084524074e-01 1.124689238381569242e-02
8.674530612244897576e-02 8.228684770403886262e+01 4.373494646060888114e-01 1.158491494116086103e-02
8.764408163265305363e-02 8.314401218357151890e+01 4.474276254138651598e-01 1.193018169467143993e-02
8.854285714285714537e-02 8.400128154773724987e+01 4.578058655913336272e-01 1.228211906392795427e-02
8.944163265306122323e-02 8.485865780615797860e+01 4.684897566260269874e-01 1.264015346851091702e-02
9.034040816326530110e-02 8.571614298161469492e+01 4.794843825236430046e-01 1.300371132800086198e-02
9.123918367346939284e-02 8.657373910480389156e+01 4.907943395806360076e-01 1.337221906197831253e-02
9.213795918367347071e-02 8.743144820929730088e+01 5.024237361389536360e-01 1.374510309002378861e-02
9.303673469387754857e-02 8.828927232669704495e+01 5.143761923227654353e-01 1.412178983171781359e-02
9.393551020408162644e-02 8.914721348197414841e+01 5.266548397571267914e-01 1.450170570664091781e-02
9.483428571428570431e-02 9.000527368898373481e+01 5.392623212686235012e-01 1.488427713437361771e-02
9.573306122448979605e-02 9.086345494614636209e+01 5.522007905681292073e-01 1.526893053449644884e-02
9.663183673469387391e-02 9.172175923228945749e+01 5.654719119158924112e-01 1.565509232658992070e-02
9.753061224489795178e-02 9.258018850263916022e+01 5.790768597692520503e-01 1.604218893023456882e-02
9.842938775510204352e-02 9.343874468495799590e+01 5.930163184133524501e-01 1.642964676501091487e-02
9.932816326530612139e-02 9.429742967581873359e+01 6.072904815753006336e-01 1.681689225049947875e-02
1.002269387755101993e-01 9.515624533701060273e+01 6.218990520222805740e-01 1.720335180628078386e-02
1.011257142857142910e-01 9.601519349207006826e+01 6.368412411441926047e-01 1.758845185193536748e-02
1.020244897959183689e-01 9.687427592293175849e+01 6.521157685214543642e-01 1.797161880704373216e-02
1.029232653061224467e-01 9.773349436669280976e+01 6.677208614786556140e-01 1.835227909118641171e-02
1.038220408163265246e-01 9.859285051248730269e+01 6.836542546248065566e-01 1.872985912394393646e-02
1.047208163265306025e-01 9.945234599846354229e+01 6.999131893809777960e-01 1.910378532489682632e-02
1.056195918367346942e-01 1.003119824088624910e+02 7.164944134961740430e-01 1.947348411362560816e-02
1.065183673469387721e-01 1.011717612711902632e+02 7.333941805523296331e-01 1.983838190971079843e-02
1.074171428571428499e-01 1.020316840534822518e+02 7.506082494593618870e-01 2.019790513273292398e-02
1.083159183673469417e-01 1.028917521616552193e+02 7.681318839412518695e-01 2.055148020227251515e-02
1.092146938775510195e-01 1.037519669369414999e+02 7.859598520141682920e-01 2.089853353791008492e-02
1.101134693877550974e-01 1.046123296534050695e+02 8.040864254576878256e-01 2.123849155922616361e-02
1.110122448979591891e-01 1.054728415155328634e+02 8.225053792801942931e-01 2.157078068580128155e-02
1.119110204081632531e-01 1.063335036559006852e+02 8.412099911795800633e-01 2.189482733721595520e-02
1.128097959183673449e-01 1.071943171329095748e+02 8.601930410004077210e-01 2.221005793305070447e-02
1.137085714285714227e-01 1.080552829285895342e+02 8.794468101887055189e-01 2.251589889288606317e-02
1.146073469387755006e-01 1.089164019464691648e+02 8.989630812456264053e-01 2.281177663630255120e-02
1.155061224489795924e-01 1.097776750095067371e+02 9.187331371812011982e-01 2.309711758288069544e-02
1.164048979591836702e-01 1.106391028580829925e+02 9.387477609694621083e-01 2.337134815220100886e-02
1.173036734693877481e-01 1.115006861480497236e+02 9.589972350062352380e-01 2.363389476384402527e-02
1.182024489795918398e-01 1.123624254488360492e+02 9.794713405709183363e-01 2.388418383739027498e-02
1.191012244897959177e-01 1.132243212416066456e+02 1.000159357293592066e+00 2.412164179242026751e-02
1.199999999999999956e-01 1.140863739174724287e+02 1.021050062628837019e+00 2.434569504851453667e-02
1.234990967306565379e-01 1.174440063942110299e+02 1.104120940603601664e+00 2.513591831494594794e-02
1.269981934613130803e-01 1.208040315620682748e+02 1.189953859039682094e+00 2.595450713405536222e-02
1.304972901919696504e-01 1.241664609835410857e+02 1.278650336335060977e+00 2.680264281306809007e-02
1.339963869226261928e-01 1.275313083807055392e+02 1.370316177030465266e+00 2.768151532002963502e-02
1.374954836532827351e-01 1.308985895785971820e+02 1.465061523906849628e+00 2.859232522736677301e-02
1.409945803839392775e-01 1.342683224557710560e+02 1.563000916918620753e+00 2.953628528926035071e-02
1.444936771145958199e-01 1.376405269013050940e+02 1.664253357842752967e+00 3.051462167898432234e-02
1.479927738452523900e-01 1.410152247775928060e+02 1.768942379601993853e+00 3.152857490893262032e-02
1.514918705759089324e-01 1.443924398883391689e+02 1.877196119288826237e+00 3.257940045353467651e-02
1.549909673065654747e-01 1.477721979512342614e+02 1.989147393977156897e+00 3.366836909273861894e-02
1.584900640372220448e-01 1.511545265748284521e+02 2.104933778461570260e+00 3.479676699173867016e-02
1.619891607678785594e-01 1.545394552391797731e+02 2.224697684110651164e+00 3.596589553083467256e-02
1.654882574985351296e-01 1.579270152798817435e+02 2.348586438061976533e+00 3.717707089776473017e-02
1.689873542291916719e-01 1.613172398751125911e+02 2.476752362022552667e+00 3.843162345350996378e-02
1.724864509598482143e-01 1.647101640353787957e+02 2.609352849970474342e+00 3.973089688140557518e-02
1.759855476905047844e-01 1.681058245956494943e+02 2.746550444081669706e+00 4.107624712838538888e-02
1.794846444211613268e-01 1.715042602096018243e+02 2.888512908230448151e+00 4.246904114632104460e-02
1.829837411518178691e-01 1.749055113457206971e+02 3.035413298434482599e+00 4.391065544067802168e-02
1.864828378824744115e-01 1.783096202850076679e+02 3.187430029634150674e+00 4.540247443308639136e-02
1.899819346131309539e-01 1.817166311200755615e+02 3.344746938213308152e+00 4.694588864390768224e-02
1.934810313437875240e-01 1.851265897554187347e+02 3.507553339683732396e+00 4.854229270046100247e-02
1.969801280744440664e-01 1.885395439086560430e+02 3.676044080969026240e+00 5.019308317624800869e-02
2.004792248051006087e-01 1.919555431125652945e+02 3.850419586735987831e+00 5.189965626628075673e-02
2.039783215357571511e-01 1.953746387177246788e+02 4.030885899232512060e+00 5.366340530346876830e-02
2.074774182664136934e-01 1.987968838955995352e+02 4.217654711101397780e+00 5.548571812095610956e-02
2.109765149970702636e-01 2.022223336419097279e+02 4.410943390649089579e+00 5.736797426532044136e-02
2.144756117277268059e-01 2.056510447801262558e+02 4.610974999057769530e+00 5.931154206564643455e-02
2.179747084583833483e-01 2.090830759649530250e+02 4.817978299038538914e+00 6.131777556367479926e-02
2.214738051890399184e-01 2.125184876856504559e+02 5.032187754432945859e+00 6.338801131050024462e-02
2.249729019196964330e-01 2.159573422690683344e+02 5.253843520280182311e+00 6.552356503565405499e-02
2.284719986503530031e-01 2.193997038822602974e+02 5.483191422878177512e+00 6.772572819486311069e-02
2.319710953810095455e-01 2.228456385345505737e+02 5.720482929378725601e+00 6.999576440332665184e-02
2.354701921116660879e-01 2.262952140789392104e+02 5.965975106470428280e+00 7.233490576200804489e-02
2.389692888423226580e-01 2.297485002127245934e+02 6.219930567718457759e+00 7.474434908520180554e-02
2.424683855729791726e-01 2.332055684772335553e+02 6.482617409147887422e+00 7.722525203851343667e-02
2.459674823036357427e-01 2.366664922565522602e+02 6.754309132677724037e+00 7.977872919739607827e-02
2.494665790342922851e-01 2.401313467751511723e+02 7.035284557036260544e+00 8.240584803752103171e-02
2.529656757649488275e-01 2.436002090943051428e+02 7.325827715815930397e+00 8.510762486954519257e-02
2.564647724956053976e-01 2.470731581072128051e+02 7.626227742357370332e+00 8.788502073227144606e-02
2.599638692262619122e-01 2.505502745327196976e+02 7.936778741189255193e+00 9.073893725980826386e-02
2.634629659569184823e-01 2.540316409075597051e+02 8.257779645792952650e+00 9.367021254012040943e-02
2.669620626875750524e-01 2.575173415770291854e+02 8.589534062509908807e+00 9.667961698435316442e-02
2.704611594182315670e-01 2.610074626840145129e+02 8.932350100466287302e+00 9.976784922851468507e-02
2.739602561488881372e-01 2.645020921562957028e+02 9.286540187454331630e+00 1.029355320917211825e-01
2.774593528795447073e-01 2.680013196920631913e+02 9.652420871782531719e+00 1.061832086166236144e-01
2.809584496102012219e-01 2.715052367435760630e+02 1.003031261019444109e+01 1.095113382244017192e-01
2.844575463408577365e-01 2.750139364989128694e+02 1.042053954205100119e+01 1.129202930136761485e-01
2.879566430715143066e-01 2.785275138617593029e+02 1.082342925007954904e+01 1.164103542425206222e-01
2.914557398021708767e-01 2.820460654291944138e+02 1.123931250812027649e+01 1.199817090329524522e-01
3.671403165409020675e-01 3.608478309255332306e+02 4.114561830381821039e+01 6.115023271148396500e-01
4.428248932796332582e-01 4.488487937814533097e+02 9.493408011463347407e+01 6.122478559552594346e-01
5.185094700183645600e-01 5.460365538309329168e+02 1.414856679674406905e+02 3.607316564359179800e-01
5.941940467570956397e-01 6.491243163649161261e+02 1.823327439678518829e+02 4.295623596695806734e-01
6.698786234958269414e-01 7.580021994914391144e+02 2.329802378027588361e+02 4.983930629032435333e-01
7.455632002345581322e-01 8.731804375942811021e+02 2.944991371335941608e+02 5.672237661369062822e-01
8.212477769732893229e-01 9.951606535426276423e+02 3.670338526619382264e+02 6.200041549642348881e-01
8.969323537120205136e-01 1.124262238998238445e+03 4.474293677251460508e+02 6.255189346682000773e-01
9.726169304507517044e-01 1.260365179296310998e+03 5.329373938245022373e+02 6.310337143721652664e-01
1.048301507189482784e+00 1.403321496462448067e+03 6.235410540697972692e+02 6.365484940761304555e-01
1.123986083928214086e+00 1.553003805100034924e+03 7.192342642112828344e+02 6.420632737800956447e-01
1.199670660666945388e+00 1.709301805909136419e+03 8.200199038679902515e+02 6.475780534840608338e-01
1.275355237405676689e+00 1.872119565084042279e+03 9.259084094419345092e+02 6.530928331880260229e-01
1.351039814144407769e+00 2.041373367051331570e+03 1.036916672637696138e+03 6.586076128919912120e-01
1.426724390883138849e+00 2.216978768074004620e+03 1.151874327766994384e+03 6.510103525740377206e-01
1.502408967621870151e+00 2.398706502249672667e+03 1.264568267347527126e+03 5.909078382996774126e-01
1.578093544360601452e+00 2.585916483083259664e+03 1.369437137856645904e+03 5.308053240253171046e-01
1.653778121099332532e+00 2.777945319798739547e+03 1.465488234928505562e+03 4.707028097509569631e-01
1.729462697838063834e+00 2.974147953542047617e+03 1.551856395070070903e+03 4.106002954765966551e-01
1.805147274576794914e+00 3.173900766619378373e+03 1.627800838432073533e+03 3.504977812022365136e-01
1.880831851315526215e+00 3.376604010542022934e+03 1.692700845258437312e+03 2.903952669278762055e-01
1.956516428054257295e+00 3.581683649096321460e+03 1.746050539046274253e+03 2.302927526535160085e-01
2.032201004792988819e+00 3.788592699948835616e+03 1.787453006026624962e+03 1.701902383791555340e-01
2.107885581531720121e+00 3.996812147419870598e+03 1.816613943596424178e+03 1.100877241047951705e-01
