# density  energy_density  pressure   sound_speed_squared  [All in nuclear units]
2.720000000000000022e-14 2.529924618736292620e-11 1.061056609100270887e-19 3.766610435412189122e-08
1.269999999999999890e-13 1.181251617980081254e-10 4.870113551826584858e-18 6.497781477172163475e-08
6.929999999999999754e-13 6.445728594625782745e-10 1.018299070687946017e-16 3.033770597342807186e-07
6.295000000000000137e-12 5.855111460395753757e-09 5.487150723824490656e-15 1.763710043904196507e-06
1.581000000000000150e-11 1.470523320212576141e-08 2.904239460150760759e-14 3.559434472327477622e-06
3.971999999999999958e-11 3.694456170323160790e-08 1.439340266754906811e-13 6.772854871245677111e-06
9.975999999999999982e-11 9.278976412613005154e-08 6.812143616221268841e-13 1.246890511177539320e-05
2.505999999999999928e-10 2.330928829758143313e-07 3.107749196951638608e-12 2.212095130576091967e-05
6.294000000000000186e-10 5.854398883216247602e-07 1.363250409771533549e-11 3.761981047239428883e-05
1.581000000000000021e-09 1.470619631082054101e-06 5.726014178088476303e-11 6.095350986710739404e-05
3.971999999999999932e-09 3.694861084648016046e-06 2.210019573374265380e-10 8.628023653304385055e-05
5.000000000000000105e-09 4.651201787816927976e-06 3.071485916280120014e-10 9.387863480799757518e-05
9.975999999999999465e-09 9.280587964640925786e-06 8.385361004129998845e-10 1.356922228656245837e-04
1.989999999999999952e-08 1.851419242998081003e-05 2.287763168863418088e-09 1.782101978513718314e-04
3.972999999999999908e-08 3.696699295748789187e-05 6.061583099087538954e-09 2.308134738384234820e-04
7.925999999999999637e-08 7.375765469301719828e-05 1.575347858094044765e-08 2.960532096713864875e-04
1.580999999999999930e-07 1.471491184379128891e-04 3.910429618672550719e-08 3.402859755131850544e-04
1.991000000000000027e-07 1.853209783927820692e-04 5.252045687899177454e-08 3.626488188833278743e-04
3.155999999999999938e-07 2.938002528823880299e-04 9.730770378831954314e-08 4.630767356912104081e-04
5.000999999999999849e-07 4.656344063839075714e-04 1.837494945860225819e-07 5.430301232045120323e-04
6.295999999999999732e-07 5.862651417037388971e-04 2.503103884558263872e-07 5.605192962670089638e-04
9.666999999999999941e-07 9.003386739730535665e-04 4.324450868778576936e-07 5.993081670211623108e-04
1.531999999999999901e-06 1.427170885631398036e-03 7.780217275717420968e-07 7.125938556504039095e-04
2.506999999999999883e-06 2.336134972129507662e-03 1.471005394641589826e-06 8.121876172121876309e-04
3.974000000000000407e-06 3.704315759716615697e-03 2.695705763844323844e-06 9.780674166779417152e-04
4.830000000000000343e-06 4.502887798316278223e-03 3.503988717694660908e-06 1.046253037768318664e-03
6.080999999999999885e-06 5.670217999231269741e-03 4.731126407333307547e-06 1.056224360839501646e-03
7.930000000000000308e-06 7.396012414119570652e-03 6.599662989063778187e-06 1.109203753630785610e-03
9.982000000000000313e-06 9.311815711689977113e-03 8.879881089227186733e-06 1.271216815433141075e-03
1.256999999999999993e-05 1.172874412604260098e-02 1.207676739913533738e-05 1.374195438212825332e-03
1.521999999999999997e-05 1.420427250933824909e-02 1.547541302213394990e-05 1.371610497379100249e-03
1.991000000000000080e-05 1.858690797761085312e-02 2.160710455847765458e-05 1.426578142835871997e-03
2.506999999999999883e-05 2.341050104039446925e-02 2.908031724375689851e-05 1.672007475975408053e-03
2.790999999999999875e-05 2.606604784714952258e-02 3.357009132255487721e-05 1.709425557744154774e-03
3.806999999999999973e-05 3.556967988784798945e-02 4.986781576435106434e-05 1.720407281314112165e-03
5.063000000000000145e-05 4.732434580343149871e-02 7.073400252905581275e-05 1.829889149838781265e-03
6.592000000000000583e-05 6.164112392498975052e-02 9.765037643900635188e-05 1.930242980462695823e-03
8.433000000000000066e-05 7.888776783401378612e-02 1.317235490470395893e-04 2.021055815200022837e-03
1.062000000000000064e-04 9.938561165478684845e-02 1.740088341640037047e-04 2.104789529260958983e-03
1.321000000000000126e-04 1.236720406455826121e-01 2.260189757651373944e-04 2.178291718403657477e-03
1.623999999999999901e-04 1.520974545104751274e-01 2.888169908545388338e-04 2.240170365918073281e-03
1.689999999999999879e-04 1.582907717069566844e-01 3.027354772999506964e-04 2.254509350360745651e-03
1.758999999999999930e-04 1.647661861691531171e-01 3.173785841705756782e-04 2.268169273277113179e-03
1.830000000000000029e-04 1.714298948183871907e-01 3.325196584577469103e-04 2.276170334580628063e-03
1.901999999999999882e-04 1.781880600978280049e-01 3.479577791899843742e-04 2.292561569242367037e-03
1.977000000000000079e-04 1.852284385240466902e-01 3.641242634600037713e-04 2.299943765467868384e-03
2.054000000000000053e-04 1.924572004474696396e-01 3.808304060475003897e-04 2.322187632288155723e-03
2.079000000000000119e-04 1.948043378760714872e-01 3.864137987380476553e-04 2.435429768083530178e-03
2.081999999999999921e-04 1.950859988578999005e-01 3.870314100985603909e-04 1.950065624557156818e-03
2.090999999999999868e-04 1.959309855029948977e-01 3.881261957135444685e-04 6.411875526909013856e-04
2.159999999999999919e-04 2.024093317906446865e-01 3.940874488768042125e-04 1.199166870571831411e-03
2.231000000000000019e-04 2.090756740932291913e-01 4.013938420547467825e-04 9.928616047829054436e-04
2.311000000000000066e-04 2.165873044433437034e-01 4.085241694843774404e-04 9.056166966301716637e-04
2.401000000000000085e-04 2.250381721984245909e-01 4.159700687886608468e-04 8.565463878902855599e-04
2.500000000000000052e-04 2.343344406330727658e-01 4.237602369176299592e-04 8.194318812157330018e-04
2.642999999999999733e-04 2.477629128650125634e-01 4.345596643180389446e-04 7.890063723638815647e-04
3.052999999999999941e-04 2.862671839140227270e-01 4.644058706720978241e-04 7.612775562167708662e-04
3.533000000000000224e-04 3.313503829113090826e-01 4.987577676308450197e-04 7.626578558207241024e-04
4.075999999999999871e-04 3.823564017794535141e-01 5.381334366106255759e-04 7.813048116943254948e-04
4.679999999999999915e-04 4.390986251953180042e-01 5.832692638200615834e-04 8.096035963157804938e-04
5.341000000000000261e-04 5.012024644415256081e-01 6.346556894078133086e-04 8.452514814113673558e-04
6.059000000000000366e-04 5.686690698184251325e-01 6.930641302632923034e-04 8.862253587289389486e-04
7.661000000000000275e-04 7.192254882508629654e-01 8.328184776562496576e-04 9.702780530519144065e-04
1.262000000000000101e-03 1.185459127778160093e+00 1.338484980802662205e-03 1.198863597978450275e-03
1.894999999999999983e-03 1.780909071169781921e+00 2.123481960401060308e-03 1.437771491635827115e-03
2.673000000000000029e-03 2.513147344746868850e+00 3.261860252001994032e-03 1.671524566936786766e-03
3.605999999999999830e-03 3.391736073717691369e+00 4.828136641022434151e-03 1.893900408978071038e-03
4.709999999999999777e-03 4.431905410739045870e+00 6.903512974832482635e-03 2.096551352830673849e-03
7.496000000000000059e-03 7.058993649504918366e+00 1.289742191321638018e-02 2.466596387205546859e-03
1.119999999999999989e-02 1.055540362104863661e+01 2.212077014004794340e-02 2.809304433764861584e-03
1.600000000000000033e-02 1.509117352747679952e+01 3.559566804390756900e-02 3.132325055719984222e-03
2.206999999999999934e-02 2.083310616724802244e+01 5.457322122755020599e-02 3.477840948757840792e-03
2.947999999999999926e-02 2.785007348564149154e+01 8.049103664263126956e-02 3.909302116317729670e-03
4.268000000000000266e-02 4.036707211535221518e+01 1.353887601042819133e-01 4.862066536253286525e-03
6.219999999999999835e-02 5.891246509830522626e+01 2.419691225623893105e-01 6.630786177272363080e-03
7.316999999999999893e-02 6.935151695866235855e+01 3.161896974764099033e-01 7.588671314871411888e-03
7.595999999999999974e-02 7.200836722020332559e+01 3.371250777904805096e-01 8.170805199905812125e-03
7.685877551020407761e-02 7.286441685978353178e+01 3.442163401143760737e-01 8.396594459765814242e-03
7.775755102040816935e-02 7.372055059753709827e+01 3.515089282129081893e-01 8.639490638427551814e-03
7.865632653061224722e-02 7.457676987160846238e+01 3.590172767829615807e-01 8.898875706420044523e-03
7.955510204081632508e-02 7.543307624924895549e+01 3.667552978599499247e-01 9.174131634272332872e-03
8.045387755102040295e-02 7.628947141653553388e+01 3.747363807942112324e-01 9.464640392513443481e-03
8.135265306122449469e-02 7.714595716854856278e+01 3.829733922269394908e-01 9.769783951672420322e-03
8.225142857142857256e-02 7.800253539998340102e+01 3.914786760624527906e-01 1.008894428227827614e-02
8.315020408163265042e-02 7.885920809617242355e+01 4.002640534339140799e-01 1.042150335486005837e-02
8.404897959183672829e-02 7.971597732449427554e+01 4.093408226599080102e-01 1.076684313994678670e-02
8.494775510204082003e-02 8.057284522615039180e+01 4.187197591895532867e-01 1.112434560806751203e-02
8.584653061224489790e-02 8.142981400828894323e+01 4.284111155340780130e-01 1.149339272975124192e-02
8.674530612244897576e-02 8.228688593645767924e+01 4.384246211830263862e-01 1.187336647552702205e-02
8.764408163265305363e-02 8.314406332736899685e+01 4.487694825034774793e-01 1.226364881592388427e-02
8.854285714285714537e-02 8.400134854195992773e+01 4.594543826208689064e-01 1.266362172147086386e-02
8.944163265306122323e-02 8.485874397873340058e+01 4.704874812802038453e-01 1.307266716269697877e-02
9.034040816326530110e-02 8.571625206736524660e+01 4.818764146866048037e-01 1.349016711013126778e-02
9.123918367346939284e-02 8.657387526256411547e+01 4.936282953243382732e-01 1.391550353430276964e-02
9.213795918367347071e-02 8.743161603817131322e+01 5.057497117535963982e-01 1.434805840574051097e-02
9.303673469387754857e-02 8.828947688148876694e+01 5.182467283844689465e-01 1.478721369497351841e-02
9.393551020408162644e-02 8.914746028782407450e+01 5.311248852276719834e-01 1.523235137253083245e-02
9.483428571428570431e-02 9.000556875524155487e+01 5.443891976217350992e-01 1.568285340894147450e-02
9.573306122448979605e-02 9.086380477951003343e+01 5.580441559364666126e-01 1.613810177473449028e-02
9.663183673469387391e-02 9.172217084923671848e+01 5.720937252526321348e-01 1.659747844043890294e-02
9.753061224489795178e-02 9.258066944118002084e+01 5.865413450178915689e-01 1.706036537658374430e-02
9.842938775510204352e-02 9.343930301573087149e+01 6.013899286791357657e-01 1.752614455369804966e-02
9.932816326530612139e-02 9.429807401255629884e+01 6.166418632914646425e-01 1.799419794231085085e-02
1.002269387755101993e-01 9.515698484639710841e+01 6.322990091041388316e-01 1.846390751295117275e-02
1.011257142857142910e-01 9.601603790301179231e+01 6.483626991239173076e-01 1.893465523614805759e-02
1.020244897959183689e-01 9.687523553526118292e+01 6.648337386562781504e-01 1.940582308243052334e-02
1.029232653061224467e-01 9.773458005932724291e+01 6.817124048250972068e-01 1.987679302232761569e-02
1.038220408163265246e-01 9.859407375105850235e+01 6.989984460714249170e-01 2.034694702636835606e-02
1.047208163265306025e-01 9.945371884243915872e+01 7.166910816320770650e-01 2.081566706508178669e-02
1.056195918367346942e-01 1.003135175181736827e+02 7.347890009988156113e-01 2.128233510899693592e-02
1.065183673469387721e-01 1.011734719123831781e+02 7.532903633589574932e-01 2.174633312864282866e-02
1.074171428571428499e-01 1.020335841054089485e+02 7.721927970183131151e-01 2.220704309454850020e-02
1.083159183673469417e-01 1.028938561207177997e+02 7.914933988074009941e-01 2.266384697724299277e-02
1.092146938775510195e-01 1.037542899219047712e+02 8.111887334719475318e-01 2.311612674725531738e-02
1.101134693877550974e-01 1.046148874097903416e+02 8.312748330487300663e-01 2.356326437511452321e-02
1.110122448979591891e-01 1.054756504196059126e+02 8.517471962278619912e-01 2.400464183134964208e-02
1.119110204081632531e-01 1.063365807182669158e+02 8.726007877026710213e-01 2.443964108648968847e-02
1.128097959183673449e-01 1.071976800017265390e+02 8.938300375083695348e-01 2.486764411106371850e-02
1.137085714285714227e-01 1.080589498924096716e+02 9.154288403507384597e-01 2.528803287560074664e-02
1.146073469387755006e-01 1.089203919367223676e+02 9.373905549261155601e-01 2.570018935062980819e-02
1.155061224489795924e-01 1.097820076026333709e+02 9.597080032339878608e-01 2.610349550667994539e-02
1.164048979591836702e-01 1.106437982773268800e+02 9.823734698835421275e-01 2.649733331428016925e-02
1.173036734693877481e-01 1.115057652649209388e+02 1.005378701395560848e+00 2.688108474395952893e-02
1.182024489795918398e-01 1.123679097842516512e+02 1.028714905501074028e+00 2.725413176624705627e-02
1.191012244897959177e-01 1.132302329667186456e+02 1.052372750438221649e+00 2.761585635167176922e-02
1.199999999999999956e-01 1.140927358541905363e+02 1.076342364248807248e+00 2.796564047076271348e-02
1.228265613896990238e-01 1.168064093253945401e+02 1.153646086049639585e+00 2.900756566773398173e-02
1.256531227793980521e-01 1.195218945878597765e+02 1.233812027220961616e+00 3.003570120742222668e-02
1.284796841690970803e-01 1.222392148802026099e+02 1.316804695223626309e+00 3.104822111316239003e-02
1.313062455587961086e-01 1.249583915830358904e+02 1.402583625157231229e+00 3.204334441993082760e-02
1.341328069484951369e-01 1.276794442329636894e+02 1.491103477529081900e+00 3.301933354063400772e-02
1.369593683381941651e-01 1.304023905374139360e+02 1.582314132035158138e+00 3.397449262660018343e-02
1.397859297278931934e-01 1.331272463901422327e+02 1.676160777400482305e+00 3.490716592963329784e-02
1.426124911175922216e-01 1.358540258872592403e+02 1.772583997340322570e+00 3.581573617217058414e-02
1.454390525072912499e-01 1.385827413436537654e+02 1.871519852715969989e+00 3.669862293133430847e-02
1.482656138969902782e-01 1.413134033097002771e+02 1.972899959969589556e+00 3.755428104199629719e-02
1.510921752866893064e-01 1.440460205881522597e+02 2.076651565932029708e+00 3.838119902336018657e-02
1.539187366763883347e-01 1.467806002511394183e+02 2.182697619105645526e+00 3.917789753301764710e-02
1.567452980660873629e-01 1.495171476571936182e+02 2.290956837531264334e+00 3.994292785193739176e-02
1.595718594557863912e-01 1.522556664682399230e+02 2.401343773354547295e+00 4.067487040339956561e-02
1.623984208454854195e-01 1.549961586665012589e+02 2.513768874212297888e+00 4.137233330850655089e-02
1.652249822351844477e-01 1.577386245712664561e+02 2.628138541563790564e+00 4.203395098050796697e-02
1.680515436248834760e-01 1.604830628554849739e+02 2.744355186096115506e+00 4.265838275992457629e-02
1.708781050145825042e-01 1.632294705621521871e+02 2.862317280335914926e+00 4.324431159213565357e-02
1.737046664042815325e-01 1.659778431204606761e+02 2.981919408602776489e+00 4.379044274888192062e-02
1.765312277939805607e-01 1.687281743616909182e+02 3.103052314442086512e+00 4.429550259492709419e-02
1.793577891836795890e-01 1.714804565348254641e+02 3.225602945677354061e+00 4.475823740095387360e-02
1.821843505733786173e-01 1.742346803218715934e+02 3.349454497224007898e+00 4.517741220362742754e-02
1.850109119630776733e-01 1.769908348528792033e+02 3.474486451808454834e+00 4.555180971364990866e-02
1.878374733527766738e-01 1.797489077206510331e+02 3.600574618737882204e+00 4.588022927254162275e-02
1.906640347424757298e-01 1.825088849951338830e+02 3.727591170867933457e+00 4.616148585882592220e-02
1.934905961321747303e-01 1.852707512374952046e+02 3.855404679916936583e+00 4.639440914425541768e-02
1.963171575218737863e-01 1.880344895138801746e+02 3.983880150277141041e+00 4.657784260070298860e-02
1.991437189115727868e-01 1.908000814088534014e+02 4.112879051475021974e+00 4.671064265834724838e-02
2.019702803012718428e-01 1.935675070385310619e+02 4.242259349434753801e+00 4.679167791580560176e-02
2.047968416909708433e-01 1.963367450634067097e+02 4.371875536700843945e+00 4.681982840291457754e-02
2.076234030806698994e-01 1.991077727008807869e+02 4.501578661778363966e+00 4.679398489691764113e-02
2.104499644703688999e-01 2.018805657375010867e+02 4.631216357751557489e+00 4.671304829290087030e-02
2.132765258600679559e-01 2.046550985409280088e+02 4.760632870344601919e+00 4.657592902941200957e-02
2.161030872497669564e-01 2.074313440716329922e+02 4.889669085591253683e+00 4.638154657031045430e-02
2.189296486394660124e-01 2.102092738943462393e+02 5.018162557283761593e+00 4.612882894402173251e-02
2.217562100291650129e-01 2.129888581892668071e+02 5.145947534375163279e+00 4.581671234151171723e-02
2.245827714188640689e-01 2.157700657630513490e+02 5.272854988513511643e+00 4.544414077445083772e-02
2.274093328085630694e-01 2.185528640595974821e+02 5.398712641891169284e+00 4.501006579520871326e-02
2.302358941982621254e-01 2.213372191706416743e+02 5.523344995597686768e+00 4.451344628050136337e-02
2.330624555879611259e-01 2.241230958461872262e+02 5.646573358670321063e+00 4.395324828071078826e-02
2.358890169776601820e-01 2.269104575047854837e+02 5.768215878042664890e+00 4.332844493710289596e-02
2.387155783673591825e-01 2.296992662436879016e+02 5.888087569598479121e+00 4.263801646939484324e-02
2.415421397570582385e-01 2.324894828488949940e+02 6.006000350545519062e+00 4.188095023647422921e-02
2.443687011467572390e-01 2.352810668051208722e+02 6.121763073331117688e+00 4.105624087248144205e-02
2.471952625364562950e-01 2.380739763057003984e+02 6.235181561331498479e+00 4.016289050322324750e-02
2.500218239261553510e-01 2.408681682624612961e+02 6.346058646555060356e+00 3.919990904401836340e-02
2.528483853158543515e-01 2.436635983155903205e+02 6.454194209609029009e+00 3.816631458446285291e-02
2.556749467055533520e-01 2.464602208435187265e+02 6.559385222190804221e+00 3.706113386344880856e-02
2.585015080952524080e-01 2.492579889728549745e+02 6.661425792375741395e+00 3.588340283887903742e-02
3.348586201749411684e-01 3.268356247097630671e+02 2.530188096476761572e+01 4.305048543266346561e-01
4.112157322546298732e-01 4.110478119555863259e+02 6.320162113007258142e+01 4.682080770801241298e-01
4.875728443343185781e-01 5.029284760709799684e+02 1.080196119964684982e+02 5.059112998336136036e-01
5.639299564140073384e-01 6.023975439742278013e+02 1.602914068489413921e+02 5.436145225871030773e-01
6.402870684936960988e-01 7.094718092936818721e+02 2.205497485250656382e+02 5.804558171086984242e-01
7.166441805733847481e-01 8.241658686108635266e+02 2.867067261094093737e+02 5.739710956992027935e-01
7.930012926530735085e-01 9.460991583175966753e+02 3.562567742931869361e+02 5.674863742897071628e-01
8.693584047327622688e-01 1.074885297688250830e+03 4.288869836411203664e+02 5.610016528802116431e-01
9.457155168124510292e-01 1.210179833278334854e+03 5.043156181224107399e+02 5.545169314707160124e-01
1.022072628892139790e+00 1.351672336334297142e+03 5.822865818981919119e+02 5.480322100612203817e-01
1.098429740971828439e+00 1.499080512089651620e+03 6.625652720776789693e+02 5.415474886517248621e-01
1.174786853051517088e+00 1.652145699094720612e+03 7.449353902764016766e+02 5.350627672422292314e-01
1.251143965131205960e+00 1.810629357976626352e+03 8.291964381571103786e+02 5.285780458327336007e-01
1.327501077210894609e+00 1.974310282553118668e+03 9.151617137655721308e+02 5.220933244232379700e-01
1.403858189290583480e+00 2.142982349952704226e+03 1.002656682817607930e+03 5.156086030137423393e-01
1.480215301370272130e+00 2.316452680646809313e+03 1.091517636214976619e+03 5.091238816042468196e-01
1.556572413449960779e+00 2.494540115467415490e+03 1.181590569810066654e+03 5.026391601947511889e-01
1.632929525529649650e+00 2.676911205069868629e+03 1.260804774365680032e+03 3.681450204721985475e-01
1.709286637609338300e+00 2.862383165995364834e+03 1.314924841406567566e+03 2.167818038646714407e-01
1.785643749689027171e+00 3.049616460709051353e+03 1.341293072906608131e+03 6.541858725714388978e-02
1.862000861768715820e+00 3.237679311307993430e+03 1.355696717173812885e+03 8.772366868777589644e-02
1.938357973848404470e+00 3.426463806353762266e+03 1.376937345092487021e+03 1.371804941907794895e-01
2.014715085928093341e+00 3.616265378542281724e+03 1.407684365558333639e+03 1.866373196937832768e-01
2.091072198007782212e+00 3.807408968104641190e+03 1.448107140806705047e+03 2.360941451967870364e-01
