# density  energy_density  pressure   sound_speed_squared  [All in nuclear units]
2.720000000000000022e-14 2.529924618736292620e-11 1.061056609100270887e-19 3.766610435412189122e-08
1.269999999999999890e-13 1.181251617980081254e-10 4.870113551826584858e-18 6.497781477172163475e-08
6.929999999999999754e-13 6.445728594625782745e-10 1.018299070687946017e-16 3.033770597342807186e-07
6.295000000000000137e-12 5.855111460395753757e-09 5.487150723824490656e-15 1.763710043904196507e-06
1.581000000000000150e-11 1.470523320212576141e-08 2.904239460150760759e-14 3.559434472327477622e-06
3.971999999999999958e-11 3.694456170323160790e-08 1.439340266754906811e-13 6.772854871245677111e-06
9.975999999999999982e-11 9.278976412613005154e-08 6.812143616221268841e-13 1.246890511177539320e-05
2.505999999999999928e-10 2.330928829758143313e-07 3.107749196951638608e-12 2.212095130576091967e-05
6.294000000000000186e-10 5.854398883216247602e-07 1.363250409771533549e-11 3.761981047239428883e-05
1.581000000000000021e-09 1.470619631082054101e-06 5.726014178088476303e-11 6.095350986710739404e-05
3.971999999999999932e-09 3.694861084648016046e-06 2.210019573374265380e-10 8.628023653304385055e-05
5.000000000000000105e-09 4.651201787816927976e-06 3.071485916280120014e-10 9.387863480799757518e-05
9.975999999999999465e-09 9.280587964640925786e-06 8.385361004129998845e-10 1.356922228656245837e-04
1.989999999999999952e-08 1.851419242998081003e-05 2.287763168863418088e-09 1.782101978513718314e-04
3.972999999999999908e-08 3.696699295748789187e-05 6.061583099087538954e-09 2.308134738384234820e-04
7.925999999999999637e-08 7.375765469301719828e-05 1.575347858094044765e-08 2.960532096713864875e-04
1.580999999999999930e-07 1.471491184379128891e-04 3.910429618672550719e-08 3.402859755131850544e-04
1.991000000000000027e-07 1.853209783927820692e-04 5.252045687899177454e-08 3.626488188833278743e-04
3.155999999999999938e-07 2.938002528823880299e-04 9.730770378831954314e-08 4.630767356912104081e-04
5.000999999999999849e-07 4.656344063839075714e-04 1.837494945860225819e-07 5.430301232045120323e-04
6.295999999999999732e-07 5.862651417037388971e-04 2.503103884558263872e-07 5.605192962670089638e-04
9.666999999999999941e-07 9.003386739730535665e-04 4.324450868778576936e-07 5.993081670211623108e-04
1.531999999999999901e-06 1.427170885631398036e-03 7.780217275717420968e-07 7.125938556504039095e-04
2.506999999999999883e-06 2.336134972129507662e-03 1.471005394641589826e-06 8.121876172121876309e-04
3.974000000000000407e-06 3.704315759716615697e-03 2.695705763844323844e-06 9.780674166779417152e-04
4.830000000000000343e-06 4.502887798316278223e-03 3.503988717694660908e-06 1.046253037768318664e-03
6.080999999999999885e-06 5.670217999231269741e-03 4.731126407333307547e-06 1.056224360839501646e-03
7.930000000000000308e-06 7.396012414119570652e-03 6.599662989063778187e-06 1.109203753630785610e-03
9.982000000000000313e-06 9.311815711689977113e-03 8.879881089227186733e-06 1.271216815433141075e-03
1.256999999999999993e-05 1.172874412604260098e-02 1.207676739913533738e-05 1.374195438212825332e-03
1.521999999999999997e-05 1.420427250933824909e-02 1.547541302213394990e-05 1.371610497379100249e-03
1.991000000000000080e-05 1.858690797761085312e-02 2.160710455847765458e-05 1.426578142835871997e-03
2.506999999999999883e-05 2.341050104039446925e-02 2.908031724375689851e-05 1.672007475975408053e-03
2.790999999999999875e-05 2.606604784714952258e-02 3.357009132255487721e-05 1.709425557744154774e-03
3.806999999999999973e-05 3.556967988784798945e-02 4.986781576435106434e-05 1.720407281314112165e-03
5.063000000000000145e-05 4.732434580343149871e-02 7.073400252905581275e-05 1.829889149838781265e-03
6.592000000000000583e-05 6.164112392498975052e-02 9.765037643900635188e-05 1.930242980462695823e-03
8.433000000000000066e-05 7.888776783401378612e-02 1.317235490470395893e-04 2.021055815200022837e-03
1.062000000000000064e-04 9.938561165478684845e-02 1.740088341640037047e-04 2.104789529260958983e-03
1.321000000000000126e-04 1.236720406455826121e-01 2.260189757651373944e-04 2.178291718403657477e-03
1.623999999999999901e-04 1.520974545104751274e-01 2.888169908545388338e-04 2.240170365918073281e-03
1.689999999999999879e-04 1.582907717069566844e-01 3.027354772999506964e-04 2.254509350360745651e-03
1.758999999999999930e-04 1.647661861691531171e-01 3.173785841705756782e-04 2.268169273277113179e-03
1.830000000000000029e-04 1.714298948183871907e-01 3.325196584577469103e-04 2.276170334580628063e-03
1.901999999999999882e-04 1.781880600978280049e-01 3.479577791899843742e-04 2.292561569242367037e-03
1.977000000000000079e-04 1.852284385240466902e-01 3.641242634600037713e-04 2.299943765467868384e-03
2.054000000000000053e-04 1.924572004474696396e-01 3.808304060475003897e-04 2.322187632288155723e-03
2.079000000000000119e-04 1.948043378760714872e-01 3.864137987380476553e-04 2.435429768083530178e-03
2.081999999999999921e-04 1.950859988578999005e-01 3.870314100985603909e-04 1.950065624557156818e-03
2.090999999999999868e-04 1.959309855029948977e-01 3.881261957135444685e-04 6.411875526909013856e-04
2.159999999999999919e-04 2.024093317906446865e-01 3.940874488768042125e-04 1.199166870571831411e-03
2.231000000000000019e-04 2.090756740932291913e-01 4.013938420547467825e-04 9.928616047829054436e-04
2.311000000000000066e-04 2.165873044433437034e-01 4.085241694843774404e-04 9.056166966301716637e-04
2.401000000000000085e-04 2.250381721984245909e-01 4.159700687886608468e-04 8.565463878902855599e-04
2.500000000000000052e-04 2.343344406330727658e-01 4.237602369176299592e-04 8.194318812157330018e-04
2.642999999999999733e-04 2.477629128650125634e-01 4.345596643180389446e-04 7.890063723638815647e-04
3.052999999999999941e-04 2.862671839140227270e-01 4.644058706720978241e-04 7.612775562167708662e-04
3.533000000000000224e-04 3.313503829113090826e-01 4.987577676308450197e-04 7.626578558207241024e-04
4.075999999999999871e-04 3.823564017794535141e-01 5.381334366106255759e-04 7.813048116943254948e-04
4.679999999999999915e-04 4.390986251953180042e-01 5.832692638200615834e-04 8.096035963157804938e-04
5.341000000000000261e-04 5.012024644415256081e-01 6.346556894078133086e-04 8.452514814113673558e-04
6.059000000000000366e-04 5.686690698184251325e-01 6.930641302632923034e-04 8.862253587289389486e-04
7.661000000000000275e-04 7.192254882508629654e-01 8.328184776562496576e-04 9.702780530519144065e-04
1.262000000000000101e-03 1.185459127778160093e+00 1.338484980802662205e-03 1.198863597978450275e-03
1.894999999999999983e-03 1.780909071169781921e+00 2.123481960401060308e-03 1.437771491635827115e-03
2.673000000000000029e-03 2.513147344746868850e+00 3.261860252001994032e-03 1.671524566936786766e-03
3.605999999999999830e-03 3.391736073717691369e+00 4.828136641022434151e-03 1.893900408978071038e-03
4.709999999999999777e-03 4.431905410739045870e+00 6.903512974832482635e-03 2.096551352830673849e-03
7.496000000000000059e-03 7.058993649504918366e+00 1.289742191321638018e-02 2.466596387205546859e-03
1.119999999999999989e-02 1.055540362104863661e+01 2.212077014004794340e-02 2.809304433764861584e-03
1.600000000000000033e-02 1.509117352747679952e+01 3.559566804390756900e-02 3.132325055719984222e-03
2.206999999999999934e-02 2.083310616724802244e+01 5.457322122755020599e-02 3.477840948757840792e-03
2.947999999999999926e-02 2.785007348564149154e+01 8.049103664263126956e-02 3.909302116317729670e-03
4.268000000000000266e-02 4.036707211535221518e+01 1.353887601042819133e-01 4.862066536253286525e-03
6.219999999999999835e-02 5.891246509830522626e+01 2.419691225623893105e-01 6.630786177272363080e-03
7.316999999999999893e-02 6.935151695866235855e+01 3.161896974764099033e-01 7.588671314871411888e-03
7.595999999999999974e-02 7.200836722020332559e+01 3.371250777904805096e-01 8.170805199905813859e-03
7.685877551020407761e-02 7.286441678860167315e+01 3.442041583891408130e-01 8.368136919855672512e-03
7.775755102040816935e-02 7.372055012485834879e+01 3.514522358506013688e-01 8.563977938904900403e-03
7.865632653061224722e-02 7.457676820735262879e+01 3.588681290684029301e-01 8.758454036770432771e-03
7.955510204081632508e-02 7.543307197921862439e+01 3.664507645396782309e-01 8.951690993169213531e-03
8.045387755102040295e-02 7.628946235075558491e+01 3.741991763950222594e-01 9.143814587818190065e-03
8.135265306122449469e-02 7.714594020173126410e+01 3.821125064312833053e-01 9.334950600434301082e-03
8.225142857142857256e-02 7.800250638358360789e+01 3.901900041470839908e-01 9.525224810734488762e-03
8.315020408163265042e-02 7.885916172152680303e+01 3.984310267809023087e-01 9.714762998435698751e-03
8.404897959183672829e-02 7.971590701656651845e+01 4.068350393515531849e-01 9.903690943254868026e-03
8.494775510204082003e-02 8.057274304742942661e+01 4.154016147009302329e-01 1.009213442490894744e-02
8.584653061224489790e-02 8.142967057241163786e+01 4.241304335388765834e-01 1.028021922311487049e-02
8.674530612244897576e-02 8.228669033115005504e+01 4.330212844900706015e-01 1.046807111758958457e-02
8.764408163265305363e-02 8.314380304632072693e+01 4.420740641428182460e-01 1.065581588805003359e-02
8.854285714285714537e-02 8.400100942526852066e+01 4.512887770996599213e-01 1.084357931421315972e-02
8.944163265306122323e-02 8.485831016157024465e+01 4.606655360297061685e-01 1.103148717579589995e-02
9.034040816326530110e-02 8.571570593653656545e+01 4.702045617226293106e-01 1.121966525251520339e-02
9.123918367346939284e-02 8.657319742065388368e+01 4.799061831442424375e-01 1.140823932408801047e-02
9.213795918367347071e-02 8.743078527496996344e+01 4.897708374936095566e-01 1.159733517023126340e-02
9.303673469387754857e-02 8.828847015242688201e+01 4.997990702616378345e-01 1.178707857066190259e-02
9.393551020408162644e-02 8.914625269914188266e+01 5.099915352911071897e-01 1.197759530509687372e-02
9.483428571428570431e-02 9.000413355564079154e+01 5.203489948381027075e-01 1.216901115325311894e-02
9.573306122448979605e-02 9.086211335804432565e+01 5.308723196348206219e-01 1.236145189484758392e-02
9.663183673469387391e-02 9.172019273921161187e+01 5.415624889537229425e-01 1.255504330959720388e-02
9.753061224489795178e-02 9.257837232984041975e+01 5.524205906730260685e-01 1.274991117721892622e-02
9.842938775510204352e-02 9.343665275952859872e+01 5.634478213435074601e-01 1.294618127742969485e-02
9.932816326530612139e-02 9.429503465779664850e+01 5.746454862566250377e-01 1.314397938994644327e-02
1.002269387755101993e-01 9.515351865507427931e+01 5.860149995139471990e-01 1.334343129448612580e-02
1.011257142857142910e-01 9.601210538365172908e+01 5.975578840978940098e-01 1.354466277076568637e-02
1.020244897959183689e-01 9.687079547859879369e+01 6.092757719437953412e-01 1.374779959850205152e-02
1.029232653061224467e-01 9.772958957865083107e+01 6.211704040132791649e-01 1.395296755741217733e-02
1.038220408163265246e-01 9.858848832706590315e+01 6.332436303689996659e-01 1.416029242721300249e-02
1.047208163265306025e-01 9.944749237245159179e+01 6.454974102507254896e-01 1.436989998762146746e-02
1.056195918367346942e-01 1.003066023695648283e+02 6.579338121528084393e-01 1.458191601835452135e-02
1.065183673469387721e-01 1.011658189800850920e+02 6.705550139030551637e-01 1.479646629912910114e-02
1.074171428571428499e-01 1.020251428733621140e+02 6.833633027430321416e-01 1.501367660966215073e-02
1.083159183673469417e-01 1.028845747271388120e+02 6.963610754098303879e-01 1.523367272967061231e-02
1.092146938775510195e-01 1.037441152282517294e+02 7.095508382193235208e-01 1.545658043887142633e-02
1.101134693877550974e-01 1.046037650733085087e+02 7.229352071509576039e-01 1.568252551698154015e-02
1.110122448979591891e-01 1.054635249693439931e+02 7.365169079341054026e-01 1.591163374371789424e-02
1.119110204081632531e-01 1.063233956344559630e+02 7.502987761360282448e-01 1.614403089879742903e-02
1.128097959183673449e-01 1.071833777984213185e+02 7.642837572514897815e-01 1.637984276193709537e-02
1.137085714285714227e-01 1.080434722032927652e+02 7.784749067940588407e-01 1.661919511285382331e-02
1.146073469387755006e-01 1.089036796039779489e+02 7.928753903891574417e-01 1.686221373126456369e-02
1.155061224489795924e-01 1.097640007688009547e+02 8.074884838688950461e-01 1.710902439688626042e-02
1.164048979591836702e-01 1.106244364800467537e+02 8.223175733687416722e-01 1.735975288943585049e-02
1.173036734693877481e-01 1.114849875344903296e+02 8.373661554260941609e-01 1.761452498863027780e-02
1.182024489795918398e-01 1.123456547439094209e+02 8.526378370807851104e-01 1.787346647418648626e-02
1.191012244897959177e-01 1.132064389355832077e+02 8.681363359775923216e-01 1.813670312582142327e-02
1.199999999999999956e-01 1.140673409527767035e+02 8.838654804708070412e-01 1.840436072325202232e-02
1.236721304614653016e-01 1.175859834305407077e+02 9.506234316287336394e-01 1.954065072831897426e-02
1.273442609229306077e-01 1.211066691503783090e+02 1.021517485651572965e+00 2.073191618297674788e-02
1.310163913843959138e-01 1.246294613324576233e+02 1.096747773311587348e+00 2.197836092562281338e-02
1.346885218458612199e-01 1.281544252794924432e+02 1.176515615958793948e+00 2.328010124045554533e-02
1.383606523073264982e-01 1.316816282350610834e+02 1.261023248357804993e+00 2.463716680176843837e-02
1.420327827687918043e-01 1.352111392496459246e+02 1.350473543706717461e+00 2.604950126792197201e-02
1.457049132302571104e-01 1.387430290534319681e+02 1.445069739501430472e+00 2.751696255490469756e-02
1.493770436917224165e-01 1.422773699350223922e+02 1.545015163000830194e+00 2.903932281614807903e-02
1.530491741531877226e-01 1.458142356253138416e+02 1.650512955130070125e+00 3.061626815266435889e-02
1.567213046146530286e-01 1.493537011858671519e+02 1.761765791732849529e+00 3.224739807552471499e-02
1.603934350761183070e-01 1.528958429011683791e+02 1.878975601150872698e+00 3.393222474110258596e-02
1.640655655375836131e-01 1.564407381742414032e+02 2.002343277171105385e+00 3.567017197831306302e-02
1.677376959990489191e-01 1.599884654251240761e+02 2.132068386440359120e+00 3.746057412623604588e-02
1.714098264605142252e-01 1.635391039917606690e+02 2.268348869503407528e+00 3.930267469998415669e-02
1.750819569219795313e-01 1.670927340329110962e+02 2.411380734676313420e+00 4.119562490244134401e-02
1.787540873834448374e-01 1.706494364327040500e+02 2.561357744022073835e+00 4.313848199953649459e-02
1.824262178449101435e-01 1.742092927064959156e+02 2.718471090752064168e+00 4.513020757701936836e-02
1.860983483063754496e-01 1.777723849077284228e+02 2.882909067435108330e+00 4.716966569726507158e-02
1.897704787678407556e-01 1.813387955354961321e+02 3.054856724457369221e+00 4.925562097545125445e-02
1.934426092293060617e-01 1.849086074425618165e+02 3.234495518241655709e+00 5.138673659552651929e-02
1.971147396907713678e-01 1.884819037435819098e+02 3.422002948805286326e+00 5.356157228773120865e-02
2.007868701522366461e-01 1.920587677233162935e+02 3.617552186312457341e+00 5.577858229104526444e-02
2.044590006137019522e-01 1.956392827446237561e+02 3.821311686361313242e+00 5.803611332583974436e-02
2.081311310751672583e-01 1.992235321560553984e+02 4.033444793838818931e+00 6.033240260420557471e-02
2.118032615366325644e-01 2.028115991988816518e+02 4.254109335279540716e+00 6.266557590794735733e-02
2.154753919980978705e-01 2.064035669134012210e+02 4.483457199778746904e+00 6.503364576706960332e-02
2.191475224595631488e-01 2.099995180443998777e+02 4.721633908637528521e+00 6.743450977477338792e-02
2.228196529210284549e-01 2.135995349456443080e+02 4.968778174059389485e+00 6.986594907853138636e-02
2.264917833824937610e-01 2.172036994833136987e+02 5.225021447375598704e+00 7.232562709074354113e-02
2.301639138439590671e-01 2.208120929382902489e+02 5.490487457452411846e+00 7.481108846680259439e-02
2.338360443054243731e-01 2.244247959072490062e+02 5.765291740128726694e+00 7.731975840313549952e-02
2.375081747668896792e-01 2.280418882025101652e+02 6.049541159750124741e+00 7.984894231309519474e-02
2.411803052283549853e-01 2.316634487506345295e+02 6.343333424104548257e+00 8.239582594307683083e-02
2.448524356898202914e-01 2.352895554897716295e+02 6.646756594333516510e+00 8.495747600042351244e-02
2.485245661512855975e-01 2.389202852657889764e+02 6.959888591685177595e+00 8.753084136579294960e-02
2.521966966127509036e-01 2.425557137272465411e+02 7.282796703297242047e+00 9.011275497467538531e-02
2.558688270742162096e-01 2.461959152192974045e+02 7.615537089554660355e+00 9.269993645673668681e-02
2.595409575356815157e-01 2.498409626766417091e+02 7.958154295952805768e+00 9.528899563007571516e-02
2.632130879971468218e-01 2.534909275156830972e+02 8.310680772818660245e+00 9.787643695489943452e-02
2.668852184586121279e-01 2.571458795260802503e+02 8.673136406699180512e+00 1.004586650587560165e-01
2.705573489200774340e-01 2.608058867619262173e+02 9.045528067718372256e+00 1.030319914530188341e-01
2.742294793815427401e-01 2.644710154328245153e+02 9.427849177732362307e+00 1.055926425675436653e-01
2.779016098430080461e-01 2.681413297951910408e+02 9.820079304673816623e+00 1.081367692371614231e-01
2.815737403044732967e-01 2.718168920441424348e+02 1.022218378907127345e+01 1.106604577795308603e-01
2.852458707659386028e-01 2.754977622064015463e+02 1.063411340935161675e+01 1.131597428085014678e-01
2.889180012274039089e-01 2.791839980346965717e+02 1.105580409317960999e+01 1.156306219300541616e-01
2.925901316888692150e-01 2.828756549041933113e+02 1.148717668275008741e+01 1.180690724685507370e-01
2.962622621503345210e-01 2.865727857115658708e+02 1.192813676261631528e+01 1.204710703691520557e-01
2.999343926117998271e-01 2.902754407773691696e+02 1.237857455929627903e+01 1.228326114142911513e-01
3.754459356197222819e-01 3.681477728472289641e+02 2.808264235714485935e+01 2.766752332823729232e-01
4.509574786276447367e-01 4.503731399374977400e+02 5.740979747470184691e+01 4.305178551504546536e-01
5.264690216355671915e-01 5.386738217302662406e+02 1.025861543393553745e+02 5.843604770185364394e-01
6.019805646434897017e-01 6.345463717508399668e+02 1.621759207486329331e+02 6.547188567519248714e-01
6.774921076514121010e-01 7.385771171753037834e+02 2.315451652935308573e+02 6.779608353396575637e-01
7.530036506593345003e-01 8.507814094431744252e+02 3.089734224447781799e+02 7.012028139273902561e-01
8.285151936672570105e-01 9.711659184830807590e+02 3.948450738050807445e+02 7.244447925151229484e-01
9.040267366751795208e-01 1.099772449170252457e+03 4.895709811945306456e+02 7.476867711028556407e-01
9.795382796831020311e-01 1.236671233590866450e+03 5.935866052513255227e+02 7.709287496905883330e-01
1.055049822691024319e+00 1.381956188383228891e+03 7.073509050272241439e+02 7.941707282783209143e-01
1.130561365698946830e+00 1.535741475922488462e+03 8.313457495116431346e+02 8.174127068660536066e-01
1.206072908706869340e+00 1.698158960428731234e+03 9.660756786160784486e+02 8.406546854537862989e-01
1.281584451714791850e+00 1.869356296278085438e+03 1.112067911643719754e+03 8.638966640415189913e-01
1.357095994722714138e+00 2.049495474176313564e+03 1.269872537143994123e+03 8.871386426292515726e-01
1.432607537730636649e+00 2.238751706244295747e+03 1.440062840136449722e+03 9.103806212169842649e-01
1.508119080738559159e+00 2.437312566876019446e+03 1.623235736727666563e+03 9.336225998047169572e-01
1.583630623746481669e+00 2.645298513467735575e+03 1.798266792167474705e+03 7.563022214367332019e-01
1.659142166754404180e+00 2.860740685356117865e+03 1.932778097992531229e+03 4.986002929516602511e-01
1.734653709762326468e+00 3.081442802260324243e+03 2.050044102534208832e+03 5.629655673230588020e-01
1.810165252770248978e+00 3.307611993117605380e+03 2.184787724212053945e+03 6.273308416944574084e-01
1.885676795778171488e+00 3.539770018159054871e+03 2.338058278355076709e+03 6.916961160658561258e-01
1.961188338786093777e+00 3.778425092537607270e+03 2.507925532723374999e+03 7.309672032603845571e-01
2.036699881794016065e+00 4.023875951526239533e+03 2.689158191607519711e+03 7.454729079947415293e-01
2.112211424801938797e+00 4.276205926551401717e+03 2.879130570509561039e+03 7.599786127290986126e-01
