# density  energy_density  pressure   sound_speed_squared  [All in nuclear units]
2.720000000000000022e-14 2.529924618736292620e-11 1.061056609100270887e-19 3.766610435412189122e-08
1.269999999999999890e-13 1.181251617980081254e-10 4.870113551826584858e-18 6.497781477172163475e-08
6.929999999999999754e-13 6.445728594625782745e-10 1.018299070687946017e-16 3.033770597342807186e-07
6.295000000000000137e-12 5.855111460395753757e-09 5.487150723824490656e-15 1.763710043904196507e-06
1.581000000000000150e-11 1.470523320212576141e-08 2.904239460150760759e-14 3.559434472327477622e-06
3.971999999999999958e-11 3.694456170323160790e-08 1.439340266754906811e-13 6.772854871245677111e-06
9.975999999999999982e-11 9.278976412613005154e-08 6.812143616221268841e-13 1.246890511177539320e-05
2.505999999999999928e-10 2.330928829758143313e-07 3.107749196951638608e-12 2.212095130576091967e-05
6.294000000000000186e-10 5.854398883216247602e-07 1.363250409771533549e-11 3.761981047239428883e-05
1.581000000000000021e-09 1.470619631082054101e-06 5.726014178088476303e-11 6.095350986710739404e-05
3.971999999999999932e-09 3.694861084648016046e-06 2.210019573374265380e-10 8.628023653304385055e-05
5.000000000000000105e-09 4.651201787816927976e-06 3.071485916280120014e-10 9.387863480799757518e-05
9.975999999999999465e-09 9.280587964640925786e-06 8.385361004129998845e-10 1.356922228656245837e-04
1.989999999999999952e-08 1.851419242998081003e-05 2.287763168863418088e-09 1.782101978513718314e-04
3.972999999999999908e-08 3.696699295748789187e-05 6.061583099087538954e-09 2.308134738384234820e-04
7.925999999999999637e-08 7.375765469301719828e-05 1.575347858094044765e-08 2.960532096713864875e-04
1.580999999999999930e-07 1.471491184379128891e-04 3.910429618672550719e-08 3.402859755131850544e-04
1.991000000000000027e-07 1.853209783927820692e-04 5.252045687899177454e-08 3.626488188833278743e-04
3.155999999999999938e-07 2.938002528823880299e-04 9.730770378831954314e-08 4.630767356912104081e-04
5.000999999999999849e-07 4.656344063839075714e-04 1.837494945860225819e-07 5.430301232045120323e-04
6.295999999999999732e-07 5.862651417037388971e-04 2.503103884558263872e-07 5.605192962670089638e-04
9.666999999999999941e-07 9.003386739730535665e-04 4.324450868778576936e-07 5.993081670211623108e-04
1.531999999999999901e-06 1.427170885631398036e-03 7.780217275717420968e-07 7.125938556504039095e-04
2.506999999999999883e-06 2.336134972129507662e-03 1.471005394641589826e-06 8.121876172121876309e-04
3.974000000000000407e-06 3.704315759716615697e-03 2.695705763844323844e-06 9.780674166779417152e-04
4.830000000000000343e-06 4.502887798316278223e-03 3.503988717694660908e-06 1.046253037768318664e-03
6.080999999999999885e-06 5.670217999231269741e-03 4.731126407333307547e-06 1.056224360839501646e-03
7.930000000000000308e-06 7.396012414119570652e-03 6.599662989063778187e-06 1.109203753630785610e-03
9.982000000000000313e-06 9.311815711689977113e-03 8.879881089227186733e-06 1.271216815433141075e-03
1.256999999999999993e-05 1.172874412604260098e-02 1.207676739913533738e-05 1.374195438212825332e-03
1.521999999999999997e-05 1.420427250933824909e-02 1.547541302213394990e-05 1.371610497379100249e-03
1.991000000000000080e-05 1.858690797761085312e-02 2.160710455847765458e-05 1.426578142835871997e-03
2.506999999999999883e-05 2.341050104039446925e-02 2.908031724375689851e-05 1.672007475975408053e-03
2.790999999999999875e-05 2.606604784714952258e-02 3.357009132255487721e-05 1.709425557744154774e-03
3.806999999999999973e-05 3.556967988784798945e-02 4.986781576435106434e-05 1.720407281314112165e-03
5.063000000000000145e-05 4.732434580343149871e-02 7.073400252905581275e-05 1.829889149838781265e-03
6.592000000000000583e-05 6.164112392498975052e-02 9.765037643900635188e-05 1.930242980462695823e-03
8.433000000000000066e-05 7.888776783401378612e-02 1.317235490470395893e-04 2.021055815200022837e-03
1.062000000000000064e-04 9.938561165478684845e-02 1.740088341640037047e-04 2.104789529260958983e-03
1.321000000000000126e-04 1.236720406455826121e-01 2.260189757651373944e-04 2.178291718403657477e-03
1.623999999999999901e-04 1.520974545104751274e-01 2.888169908545388338e-04 2.240170365918073281e-03
1.689999999999999879e-04 1.582907717069566844e-01 3.027354772999506964e-04 2.254509350360745651e-03
1.758999999999999930e-04 1.647661861691531171e-01 3.173785841705756782e-04 2.268169273277113179e-03
1.830000000000000029e-04 1.714298948183871907e-01 3.325196584577469103e-04 2.276170334580628063e-03
1.901999999999999882e-04 1.781880600978280049e-01 3.479577791899843742e-04 2.292561569242367037e-03
1.977000000000000079e-04 1.852284385240466902e-01 3.641242634600037713e-04 2.299943765467868384e-03
2.054000000000000053e-04 1.924572004474696396e-01 3.808304060475003897e-04 2.322187632288155723e-03
2.079000000000000119e-04 1.948043378760714872e-01 3.864137987380476553e-04 2.435429768083530178e-03
2.081999999999999921e-04 1.950859988578999005e-01 3.870314100985603909e-04 1.950065624557156818e-03
2.090999999999999868e-04 1.959309855029948977e-01 3.881261957135444685e-04 6.411875526909013856e-04
2.159999999999999919e-04 2.024093317906446865e-01 3.940874488768042125e-04 1.199166870571831411e-03
2.231000000000000019e-04 2.090756740932291913e-01 4.013938420547467825e-04 9.928616047829054436e-04
2.311000000000000066e-04 2.165873044433437034e-01 4.085241694843774404e-04 9.056166966301716637e-04
2.401000000000000085e-04 2.250381721984245909e-01 4.159700687886608468e-04 8.565463878902855599e-04
2.500000000000000052e-04 2.343344406330727658e-01 4.237602369176299592e-04 8.194318812157330018e-04
2.642999999999999733e-04 2.477629128650125634e-01 4.345596643180389446e-04 7.890063723638815647e-04
3.052999999999999941e-04 2.862671839140227270e-01 4.644058706720978241e-04 7.612775562167708662e-04
3.533000000000000224e-04 3.313503829113090826e-01 4.987577676308450197e-04 7.626578558207241024e-04
4.075999999999999871e-04 3.823564017794535141e-01 5.381334366106255759e-04 7.813048116943254948e-04
4.679999999999999915e-04 4.390986251953180042e-01 5.832692638200615834e-04 8.096035963157804938e-04
5.341000000000000261e-04 5.012024644415256081e-01 6.346556894078133086e-04 8.452514814113673558e-04
6.059000000000000366e-04 5.686690698184251325e-01 6.930641302632923034e-04 8.862253587289389486e-04
7.661000000000000275e-04 7.192254882508629654e-01 8.328184776562496576e-04 9.702780530519144065e-04
1.262000000000000101e-03 1.185459127778160093e+00 1.338484980802662205e-03 1.198863597978450275e-03
1.894999999999999983e-03 1.780909071169781921e+00 2.123481960401060308e-03 1.437771491635827115e-03
2.673000000000000029e-03 2.513147344746868850e+00 3.261860252001994032e-03 1.671524566936786766e-03
3.605999999999999830e-03 3.391736073717691369e+00 4.828136641022434151e-03 1.893900408978071038e-03
4.709999999999999777e-03 4.431905410739045870e+00 6.903512974832482635e-03 2.096551352830673849e-03
7.496000000000000059e-03 7.058993649504918366e+00 1.289742191321638018e-02 2.466596387205546859e-03
1.119999999999999989e-02 1.055540362104863661e+01 2.212077014004794340e-02 2.809304433764861584e-03
1.600000000000000033e-02 1.509117352747679952e+01 3.559566804390756900e-02 3.132325055719984222e-03
2.206999999999999934e-02 2.083310616724802244e+01 5.457322122755020599e-02 3.477840948757840792e-03
2.947999999999999926e-02 2.785007348564149154e+01 8.049103664263126956e-02 3.909302116317729670e-03
4.268000000000000266e-02 4.036707211535221518e+01 1.353887601042819133e-01 4.862066536253286525e-03
6.219999999999999835e-02 5.891246509830522626e+01 2.419691225623893105e-01 6.630786177272363080e-03
7.316999999999999893e-02 6.935151695866235855e+01 3.161896974764099033e-01 7.588671314871411888e-03
7.595999999999999974e-02 7.200836722020332559e+01 3.371250777904805096e-01 8.170805199905812125e-03
7.685877551020407761e-02 7.286441683137675795e+01 3.442114786779219560e-01 8.385237734398344467e-03
7.775755102040816935e-02 7.372055040910549906e+01 3.514863385399953910e-01 8.609436850780744291e-03
7.865632653061224722e-02 7.457676920908124885e+01 3.589579693221845447e-01 8.843173249836537922e-03
7.955510204081632508e-02 7.543307455218587165e+01 3.666344905344913196e-01 9.086217632349265563e-03
8.045387755102040295e-02 7.628946782010686434e+01 3.745238292678083059e-01 9.338340699102462214e-03
8.135265306122449469e-02 7.714595045115036953e+01 3.826337202094939882e-01 9.599313150879666343e-03
8.225142857142857256e-02 7.800252393623821945e+01 3.909717056574827931e-01 9.868905688464399070e-03
8.315020408163265042e-02 7.885918981508105219e+01 3.995451355323207387e-01 1.014688901264020407e-02
8.404897959183672829e-02 7.971594967251645869e+01 4.083611673865663594e-01 1.043303382419061461e-02
8.494775510204082003e-02 8.057280513500397490e+01 4.174267664110497544e-01 1.072711082389916915e-02
8.584653061224489790e-02 8.142975786726861998e+01 4.267487054375240785e-01 1.102889071254939575e-02
8.674530612244897576e-02 8.228680956908473831e+01 4.363335649372904745e-01 1.133814419092483115e-02
8.764408163265305363e-02 8.314396197219339513e+01 4.461877330154117582e-01 1.165464195980901209e-02
8.854285714285714537e-02 8.400121683734613498e+01 4.563174054001719604e-01 1.197815471998547529e-02
8.944163265306122323e-02 8.485857595146823940e+01 4.667285854274693668e-01 1.230845317223774708e-02
9.034040816326530110e-02 8.571604112493652394e+01 4.774270840198672206e-01 1.264530801734936420e-02
9.123918367346939284e-02 8.657361418896432781e+01 4.884185196600506762e-01 1.298848995610387032e-02
9.213795918367347071e-02 8.743129699309027103e+01 4.997083183584713484e-01 1.333776968928478655e-02
9.303673469387754857e-02 8.828909140276405765e+01 5.113017136149874409e-01 1.369291791767565485e-02
9.393551020408162644e-02 8.914699929702490522e+01 5.232037463743267613e-01 1.405370534206001193e-02
9.483428571428570431e-02 9.000502256626928954e+01 5.354192649752304023e-01 1.441990266322138239e-02
9.573306122448979605e-02 9.086316311010196500e+01 5.479529250931510775e-01 1.479128058194331512e-02
9.663183673469387391e-02 9.172142283526746098e+01 5.608091896764030304e-01 1.516760979900933295e-02
9.753061224489795178e-02 9.257980365365776265e+01 5.739923288756808573e-01 1.554866101520297611e-02
9.842938775510204352e-02 9.343830748039329137e+01 5.875064199668792453e-01 1.593420493130777785e-02
9.932816326530612139e-02 9.429693623197233876e+01 6.013553472671643307e-01 1.632401224810727317e-02
1.002269387755101993e-01 9.515569182448740548e+01 6.155428020442673676e-01 1.671785366638499012e-02
1.011257142857142910e-01 9.601457617190445148e+01 6.300722824189786131e-01 1.711549988692447760e-02
1.020244897959183689e-01 9.687359118440252814e+01 6.449470932608394325e-01 1.751672161050925672e-02
1.029232653061224467e-01 9.773273876677058070e+01 6.601703460770456111e-01 1.792128953792286247e-02
1.038220408163265246e-01 9.859202081685978669e+01 6.757449588945794172e-01 1.832897436994883680e-02
1.047208163265306025e-01 9.945143922408824722e+01 6.916736561356102708e-01 1.873954680737071124e-02
1.056195918367346942e-01 1.003109958679956719e+02 7.079589684862074295e-01 1.915277755097202772e-02
1.065183673469387721e-01 1.011706926168462815e+02 7.246032327584217558e-01 1.956843730153630390e-02
1.074171428571428499e-01 1.020305313262779805e+02 7.416085917458076215e-01 1.998629675984708171e-02
1.083159183673469417e-01 1.028905138379950444e+02 7.589769940724573338e-01 2.040612662668791349e-02
1.092146938775510195e-01 1.037506419785031966e+02 7.767101940356357925e-01 2.082769760284230304e-02
1.101134693877550974e-01 1.046109175578845623e+02 7.948097514421144094e-01 2.125078038909379921e-02
1.110122448979591891e-01 1.054713423686123832e+02 8.132770314383017674e-01 2.167514568622594395e-02
1.119110204081632531e-01 1.063319181844011041e+02 8.321132043342850393e-01 2.210056419502226185e-02
1.128097959183673449e-01 1.071926467590931935e+02 8.513192454219056238e-01 2.252680661626629138e-02
1.137085714285714227e-01 1.080535298255797727e+02 8.708959347869832390e-01 2.295364365074156407e-02
1.146073469387755006e-01 1.089145690947532756e+02 8.908438571158366903e-01 2.338084599923161838e-02
1.155061224489795924e-01 1.097757662544920265e+02 9.111634014962279871e-01 2.380818436251998932e-02
1.164048979591836702e-01 1.106371229686746602e+02 9.318547612128812441e-01 2.423542944139020494e-02
1.173036734693877481e-01 1.114986408762233623e+02 9.529179335377299109e-01 2.466235193662580372e-02
1.182024489795918398e-01 1.123603215901748626e+02 9.743527195150443188e-01 2.508872254901033452e-02
1.191012244897959177e-01 1.132221666967777338e+02 9.961587237416047458e-01 2.551431197932729766e-02
1.199999999999999956e-01 1.140841777546157942e+02 1.018335354142091864e+00 2.593889092836026283e-02
1.212849135006564549e-01 1.153168233787426118e+02 1.050682988021753861e+00 2.654592321307036595e-02
1.225698270013129143e-01 1.165498157273482747e+02 1.083792868661863418e+00 2.716054762728415187e-02
1.238547405019693876e-01 1.177831592081620187e+02 1.117674883483699588e+00 2.778273023148965584e-02
1.251396540026258331e-01 1.190168582399017225e+02 1.152338894291295990e+00 2.841243674303630534e-02
1.264245675032823202e-01 1.202509172516715523e+02 1.187794737007919155e+00 2.904963253319492109e-02
1.277094810039387796e-01 1.214853406823798849e+02 1.224052221405874885e+00 2.969428262352188236e-02
1.289943945045952389e-01 1.227201329801798551e+02 1.261121130828761316e+00 3.034635168154326337e-02
1.302793080052516983e-01 1.239552986019276659e+02 1.299011221905260305e+00 3.100580401577338399e-02
1.315642215059081577e-01 1.251908420126604398e+02 1.337732224253604940e+00 3.167260357007863070e-02
1.328491350065646170e-01 1.264267676850913631e+02 1.377293840175860984e+00 3.234671391740272239e-02
1.341340485072210764e-01 1.276630800991207337e+02 1.417705744341176910e+00 3.302809825286333323e-02
1.354189620078775635e-01 1.288997837413635068e+02 1.458977583457172766e+00 3.371671938623296838e-02
1.367038755085340229e-01 1.301368831046911225e+02 1.501118975928640742e+00 3.441253973381556974e-02
1.379887890091904823e-01 1.313743826877874596e+02 1.544139511502762740e+00 3.511552130972959984e-02
1.392737025098469417e-01 1.326122869947177207e+02 1.588048750900031392e+00 3.582562571660801581e-02
1.405586160105034010e-01 1.338506005345099084e+02 1.632856225430098451e+00 3.654281413572593035e-02
1.418435295111598604e-01 1.350893278207483093e+02 1.678571436591770105e+00 3.726704731656586139e-02
1.431284430118163198e-01 1.363284733711775232e+02 1.725203855656382013e+00 3.799828556582901529e-02
1.444133565124727792e-01 1.375680417073169224e+02 1.772762923233795362e+00 3.873648873590383734e-02
1.456982700131292385e-01 1.388080373540854850e+02 1.821258048820262987e+00 3.948161621279853983e-02
1.469831835137857257e-01 1.400484648394350700e+02 1.870698610327425460e+00 4.023362690354775895e-02
1.482680970144421850e-01 1.412893286939928146e+02 1.921093953591695325e+00 4.099247922310132047e-02
1.495530105150986444e-01 1.425306334507112922e+02 1.972453391863318695e+00 4.175813108070268453e-02
1.508379240157551038e-01 1.437723836445263998e+02 2.024786205274370143e+00 4.253053986576556256e-02
1.521228375164115632e-01 1.450145838120219253e+02 2.078101640284983898e+00 4.330966243325574949e-02
1.534077510170680225e-01 1.462572384911012762e+02 2.132408909107107231e+00 4.409545508858574853e-02
1.546926645177245097e-01 1.475003522206651780e+02 2.187717189105071736e+00 4.488787357202902312e-02
1.559775780183809690e-01 1.487439295402939194e+02 2.244035622172281474e+00 4.568687304266082910e-02
1.572624915190374284e-01 1.499879749899366175e+02 2.301373314083340116e+00 4.649240806183227437e-02
1.585474050196938878e-01 1.512324931096037517e+02 2.359739333820906282e+00 4.730443257618371228e-02
1.598323185203503471e-01 1.524774884390651266e+02 2.419142712876610535e+00 4.812289990020391511e-02
1.611172320210068065e-01 1.537229655175507617e+02 2.479592444525346107e+00 4.894776269834058557e-02
1.624021455216632659e-01 1.549689288834567265e+02 2.541097483072257912e+00 4.977897296666822236e-02
1.636870590223197253e-01 1.562153830740529088e+02 2.603666743071755274e+00 5.061648201411864806e-02
1.649719725229761846e-01 1.574623326251950175e+02 2.667309098517880894e+00 5.146024044327951463e-02
1.662568860236326440e-01 1.587097820710375515e+02 2.732033382005363720e+00 5.231019813076584479e-02
1.675417995242891034e-01 1.599577359437510893e+02 2.797848383860693122e+00 5.316630420716941807e-02
1.688267130249455905e-01 1.612061987732389809e+02 2.864762851242550479e+00 5.402850703659084486e-02
1.701116265256020499e-01 1.624551750868583611e+02 2.932785487210928466e+00 5.489675419575833215e-02
1.713965400262585093e-01 1.637046694091403936e+02 3.001924949764297246e+00 5.577099245273797051e-02
1.726814535269149686e-01 1.649546862615121938e+02 3.072189850844133208e+00 5.665116774523908799e-02
1.739663670275714280e-01 1.662052301620202854e+02 3.143588755306168103e+00 5.753722515851866781e-02
1.752512805282279151e-01 1.674563056250531474e+02 3.216130179857696447e+00 5.842910890288866704e-02
1.765361940288843745e-01 1.687079171610647563e+02 3.289822591960275489e+00 5.932676229082897712e-02
1.778211075295408339e-01 1.699600692762985545e+02 3.364674408697181374e+00 6.023012771371042545e-02
1.791060210301972933e-01 1.712127664725096281e+02 3.440693995604935385e+00 6.113914661812947654e-02
1.803909345308537526e-01 1.724660132466880782e+02 3.517889665468260318e+00 6.205375948185850449e-02
1.816758480315102120e-01 1.737198140907796642e+02 3.596269677077802207e+00 6.297390578941361450e-02
1.829607615321666714e-01 1.749741734914074982e+02 3.675842233949954352e+00 6.389952400724281667e-02
2.608595215008979729e-01 2.530748903067544404e+02 1.570551105938492142e+01 2.391968363578176882e-01
3.387582814696292743e-01 3.365323234458342654e+02 4.085016626259289296e+01 3.582644833976855736e-01
4.166570414383605203e-01 4.269433280267480768e+02 7.609950649172722592e+01 4.190162298315314726e-01
4.945558014070918218e-01 5.247294988503426794e+02 1.201710568480839356e+02 4.797679762653774271e-01
5.724545613758231788e-01 6.301958136384266709e+02 1.741183670551188811e+02 5.405197226992234372e-01
6.503533213445543693e-01 7.434442369180048900e+02 2.302221931991282986e+02 4.548585028838102451e-01
7.282520813132856707e-01 8.629643361466748956e+02 2.779361648685261912e+02 3.472685403251163927e-01
8.061508412820169722e-01 9.869779530060570778e+02 3.141939576916418559e+02 2.396785777664225403e-01
8.840496012507482737e-01 1.114197573765943616e+03 3.464219070227960628e+02 2.666622633137556431e-01
9.619483612194795752e-01 1.244444689015128461e+03 3.830518387116347867e+02 2.954547060553929794e-01
1.039847121188210988e+00 1.377848610551208139e+03 4.245600288951888501e+02 3.264352655043606388e-01
1.117745881156942067e+00 1.514596958344382301e+03 4.732193369079572562e+02 3.843156334111091366e-01
1.195644641125673369e+00 1.655050547093696423e+03 5.313350606127692117e+02 4.421960013178578008e-01
1.273543401094404670e+00 1.799603327849128391e+03 5.995223443845845850e+02 5.000763692246064096e-01
1.351442161063135972e+00 1.948640483548972270e+03 6.784602335334036525e+02 5.579567371313551849e-01
1.429340921031867273e+00 2.102543666635806403e+03 7.688927087365458419e+02 6.158371050381037382e-01
1.507239681000598575e+00 2.261695169403243654e+03 8.716305535076056685e+02 6.737174729448525135e-01
1.585138440969329876e+00 2.426481343248160556e+03 9.875539045375087426e+02 7.315978408516010667e-01
1.663037200938061178e+00 2.597281667791436121e+03 1.115094696621900766e+03 7.610258101500992911e-01
1.740935960906792479e+00 2.774263838251337802e+03 1.249330249592017935e+03 7.561471455055240876e-01
1.818834720875523780e+00 2.957337218323464185e+03 1.387293998861860928e+03 7.512684808609487730e-01
1.896733480844255082e+00 3.146397616140850459e+03 1.528848450241898263e+03 7.463898162163735694e-01
1.974632240812986383e+00 3.341357924473146340e+03 1.676691269094653080e+03 7.696963896358247625e-01
2.052531000781717463e+00 3.542337609002624959e+03 1.836008627685739157e+03 8.145377924905498057e-01
