# density  energy_density  pressure   sound_speed_squared  [All in nuclear units]
2.720000000000000022e-14 2.529924618736292620e-11 1.061056609100270887e-19 3.766610435412189122e-08
1.269999999999999890e-13 1.181251617980081254e-10 4.870113551826584858e-18 6.497781477172163475e-08
6.929999999999999754e-13 6.445728594625782745e-10 1.018299070687946017e-16 3.033770597342807186e-07
6.295000000000000137e-12 5.855111460395753757e-09 5.487150723824490656e-15 1.763710043904196507e-06
1.581000000000000150e-11 1.470523320212576141e-08 2.904239460150760759e-14 3.559434472327477622e-06
3.971999999999999958e-11 3.694456170323160790e-08 1.439340266754906811e-13 6.772854871245677111e-06
9.975999999999999982e-11 9.278976412613005154e-08 6.812143616221268841e-13 1.246890511177539320e-05
2.505999999999999928e-10 2.330928829758143313e-07 3.107749196951638608e-12 2.212095130576091967e-05
6.294000000000000186e-10 5.854398883216247602e-07 1.363250409771533549e-11 3.761981047239428883e-05
1.581000000000000021e-09 1.470619631082054101e-06 5.726014178088476303e-11 6.095350986710739404e-05
3.971999999999999932e-09 3.694861084648016046e-06 2.210019573374265380e-10 8.628023653304385055e-05
5.000000000000000105e-09 4.651201787816927976e-06 3.071485916280120014e-10 9.387863480799757518e-05
9.975999999999999465e-09 9.280587964640925786e-06 8.385361004129998845e-10 1.356922228656245837e-04
1.989999999999999952e-08 1.851419242998081003e-05 2.287763168863418088e-09 1.782101978513718314e-04
3.972999999999999908e-08 3.696699295748789187e-05 6.061583099087538954e-09 2.308134738384234820e-04
7.925999999999999637e-08 7.375765469301719828e-05 1.575347858094044765e-08 2.960532096713864875e-04
1.580999999999999930e-07 1.471491184379128891e-04 3.910429618672550719e-08 3.402859755131850544e-04
1.991000000000000027e-07 1.853209783927820692e-04 5.252045687899177454e-08 3.626488188833278743e-04
3.155999999999999938e-07 2.938002528823880299e-04 9.730770378831954314e-08 4.630767356912104081e-04
5.000999999999999849e-07 4.656344063839075714e-04 1.837494945860225819e-07 5.430301232045120323e-04
6.295999999999999732e-07 5.862651417037388971e-04 2.503103884558263872e-07 5.605192962670089638e-04
9.666999999999999941e-07 9.003386739730535665e-04 4.324450868778576936e-07 5.993081670211623108e-04
1.531999999999999901e-06 1.427170885631398036e-03 7.780217275717420968e-07 7.125938556504039095e-04
2.506999999999999883e-06 2.336134972129507662e-03 1.471005394641589826e-06 8.121876172121876309e-04
3.974000000000000407e-06 3.704315759716615697e-03 2.695705763844323844e-06 9.780674166779417152e-04
4.830000000000000343e-06 4.502887798316278223e-03 3.503988717694660908e-06 1.046253037768318664e-03
6.080999999999999885e-06 5.670217999231269741e-03 4.731126407333307547e-06 1.056224360839501646e-03
7.930000000000000308e-06 7.396012414119570652e-03 6.599662989063778187e-06 1.109203753630785610e-03
9.982000000000000313e-06 9.311815711689977113e-03 8.879881089227186733e-06 1.271216815433141075e-03
1.256999999999999993e-05 1.172874412604260098e-02 1.207676739913533738e-05 1.374195438212825332e-03
1.521999999999999997e-05 1.420427250933824909e-02 1.547541302213394990e-05 1.371610497379100249e-03
1.991000000000000080e-05 1.858690797761085312e-02 2.160710455847765458e-05 1.426578142835871997e-03
2.506999999999999883e-05 2.341050104039446925e-02 2.908031724375689851e-05 1.672007475975408053e-03
2.790999999999999875e-05 2.606604784714952258e-02 3.357009132255487721e-05 1.709425557744154774e-03
3.806999999999999973e-05 3.556967988784798945e-02 4.986781576435106434e-05 1.720407281314112165e-03
5.063000000000000145e-05 4.732434580343149871e-02 7.073400252905581275e-05 1.829889149838781265e-03
6.592000000000000583e-05 6.164112392498975052e-02 9.765037643900635188e-05 1.930242980462695823e-03
8.433000000000000066e-05 7.888776783401378612e-02 1.317235490470395893e-04 2.021055815200022837e-03
1.062000000000000064e-04 9.938561165478684845e-02 1.740088341640037047e-04 2.104789529260958983e-03
1.321000000000000126e-04 1.236720406455826121e-01 2.260189757651373944e-04 2.178291718403657477e-03
1.623999999999999901e-04 1.520974545104751274e-01 2.888169908545388338e-04 2.240170365918073281e-03
1.689999999999999879e-04 1.582907717069566844e-01 3.027354772999506964e-04 2.254509350360745651e-03
1.758999999999999930e-04 1.647661861691531171e-01 3.173785841705756782e-04 2.268169273277113179e-03
1.830000000000000029e-04 1.714298948183871907e-01 3.325196584577469103e-04 2.276170334580628063e-03
1.901999999999999882e-04 1.781880600978280049e-01 3.479577791899843742e-04 2.292561569242367037e-03
1.977000000000000079e-04 1.852284385240466902e-01 3.641242634600037713e-04 2.299943765467868384e-03
2.054000000000000053e-04 1.924572004474696396e-01 3.808304060475003897e-04 2.322187632288155723e-03
2.079000000000000119e-04 1.948043378760714872e-01 3.864137987380476553e-04 2.435429768083530178e-03
2.081999999999999921e-04 1.950859988578999005e-01 3.870314100985603909e-04 1.950065624557156818e-03
2.090999999999999868e-04 1.959309855029948977e-01 3.881261957135444685e-04 6.411875526909013856e-04
2.159999999999999919e-04 2.024093317906446865e-01 3.940874488768042125e-04 1.199166870571831411e-03
2.231000000000000019e-04 2.090756740932291913e-01 4.013938420547467825e-04 9.928616047829054436e-04
2.311000000000000066e-04 2.165873044433437034e-01 4.085241694843774404e-04 9.056166966301716637e-04
2.401000000000000085e-04 2.250381721984245909e-01 4.159700687886608468e-04 8.565463878902855599e-04
2.500000000000000052e-04 2.343344406330727658e-01 4.237602369176299592e-04 8.194318812157330018e-04
2.642999999999999733e-04 2.477629128650125634e-01 4.345596643180389446e-04 7.890063723638815647e-04
3.052999999999999941e-04 2.862671839140227270e-01 4.644058706720978241e-04 7.612775562167708662e-04
3.533000000000000224e-04 3.313503829113090826e-01 4.987577676308450197e-04 7.626578558207241024e-04
4.075999999999999871e-04 3.823564017794535141e-01 5.381334366106255759e-04 7.813048116943254948e-04
4.679999999999999915e-04 4.390986251953180042e-01 5.832692638200615834e-04 8.096035963157804938e-04
5.341000000000000261e-04 5.012024644415256081e-01 6.346556894078133086e-04 8.452514814113673558e-04
6.059000000000000366e-04 5.686690698184251325e-01 6.930641302632923034e-04 8.862253587289389486e-04
7.661000000000000275e-04 7.192254882508629654e-01 8.328184776562496576e-04 9.702780530519144065e-04
1.262000000000000101e-03 1.185459127778160093e+00 1.338484980802662205e-03 1.198863597978450275e-03
1.894999999999999983e-03 1.780909071169781921e+00 2.123481960401060308e-03 1.437771491635827115e-03
2.673000000000000029e-03 2.513147344746868850e+00 3.261860252001994032e-03 1.671524566936786766e-03
3.605999999999999830e-03 3.391736073717691369e+00 4.828136641022434151e-03 1.893900408978071038e-03
4.709999999999999777e-03 4.431905410739045870e+00 6.903512974832482635e-03 2.096551352830673849e-03
7.496000000000000059e-03 7.058993649504918366e+00 1.289742191321638018e-02 2.466596387205546859e-03
1.119999999999999989e-02 1.055540362104863661e+01 2.212077014004794340e-02 2.809304433764861584e-03
1.600000000000000033e-02 1.509117352747679952e+01 3.559566804390756900e-02 3.132325055719984222e-03
2.206999999999999934e-02 2.083310616724802244e+01 5.457322122755020599e-02 3.477840948757840792e-03
2.947999999999999926e-02 2.785007348564149154e+01 8.049103664263126956e-02 3.909302116317729670e-03
4.268000000000000266e-02 4.036707211535221518e+01 1.353887601042819133e-01 4.862066536253286525e-03
6.219999999999999835e-02 5.891246509830522626e+01 2.419691225623893105e-01 6.630786177272363080e-03
7.316999999999999893e-02 6.935151695866235855e+01 3.161896974764099033e-01 7.588671314871411888e-03
7.595999999999999974e-02 7.200836722020332559e+01 3.371250777904805096e-01 8.170805199905812125e-03
7.685877551020407761e-02 7.286441678886136231e+01 3.442042028200156811e-01 8.368240714152571161e-03
7.775755102040816935e-02 7.372055012640845462e+01 3.514524124967974283e-01 8.564182980131803888e-03
7.865632653061224722e-02 7.457676821201390283e+01 3.588684884345539894e-01 8.758675738645724934e-03
7.955510204081632508e-02 7.543307198875801589e+01 3.664512495823614713e-01 8.951762730496561071e-03
8.045387755102040295e-02 7.628946236527664837e+01 3.741995522182692824e-01 9.143487696486539071e-03
8.135265306122449469e-02 7.714594021733324780e+01 3.821122899447303989e-01 9.333894377417887439e-03
8.225142857142857256e-02 7.800250638932038783e+01 3.901883936857268309e-01 9.523026514092822539e-03
8.315020408163265042e-02 7.885916169569647138e+01 3.984268316854898129e-01 9.710927847313569408e-03
8.404897959183672829e-02 7.971590692235950826e+01 4.068266095087177958e-01 9.897642117882354817e-03
8.494775510204082003e-02 8.057274282796302600e+01 4.153867700422058662e-01 1.008321306660140901e-02
8.584653061224489790e-02 8.142967014517532220e+01 4.241063934978015482e-01 1.026768443427294487e-02
8.674530612244897576e-02 8.228668958188677607e+01 4.329845974166123823e-01 1.045109996169919439e-02
8.764408163265305363e-02 8.314380182236699568e+01 4.420205366743900077e-01 1.063350338968237913e-02
8.854285714285714537e-02 8.400100752837441576e+01 4.512134034880252997e-01 1.081493845902472759e-02
8.944163265306122323e-02 8.485830734022070487e+01 4.605624274230897264e-01 1.099544891052845787e-02
9.034040816326530110e-02 8.571570187779309435e+01 4.700668754023656914e-01 1.117507848499579501e-02
9.123918367346939284e-02 8.657319174153556673e+01 4.797260517153086878e-01 1.135387092322896925e-02
9.213795918367347071e-02 8.743077751339157544e+01 4.895392980283896911e-01 1.153186996603019696e-02
9.303673469387754857e-02 8.828845975771045573e+01 4.995059933962716081e-01 1.170911935420171184e-02
9.393551020408162644e-02 8.914623902211822326e+01 5.096255542737713196e-01 1.188566282854573372e-02
9.483428571428570431e-02 9.000411583835575868e+01 5.198974345285674037e-01 1.206154412986448071e-02
9.573306122448979605e-02 9.086209072308543000e+01 5.303211254546129627e-01 1.223680699896018652e-02
9.663183673469387391e-02 9.172016417866652205e+01 5.408961557862160818e-01 1.241149517663507097e-02
9.753061224489795178e-02 9.257833669390353748e+01 5.516220917127556689e-01 1.258565240369136258e-02
9.842938775510204352e-02 9.343660874476556444e+01 5.624985368939974251e-01 1.275932242093128118e-02
9.932816326530612139e-02 9.429498079508046260e+01 5.735251324759808034e-01 1.293254896915704832e-02
1.002269387755101993e-01 9.515345329720365442e+01 5.847015571074511975e-01 1.310537578917089774e-02
1.011257142857142910e-01 9.601202669266322687e+01 5.960275269568076073e-01 1.327784662177504751e-02
1.020244897959183689e-01 9.687070141278215374e+01 6.075027957295424663e-01 1.345000520777172096e-02
1.029232653061224467e-01 9.772947787927863317e+01 6.191271546861537578e-01 1.362189528796314483e-02
1.038220408163265246e-01 9.858835650484618895e+01 6.309004326605034407e-01 1.379356060315154592e-02
1.047208163265306025e-01 9.944733769371299559e+01 6.428224960786064202e-01 1.396504489413914057e-02
1.056195918367346942e-01 1.003064218421827434e+02 6.548932489778303001e-01 1.413639190172816251e-02
1.065183673469387721e-01 1.011656093391572000e+02 6.671126330264881554e-01 1.430764536672083330e-02
1.074171428571428499e-01 1.020249005666410937e+02 6.794806275438118881e-01 1.447884902991937103e-02
1.083159183673469417e-01 1.028842959002303843e+02 6.919972495202877383e-01 1.465004663212600769e-02
1.092146938775510195e-01 1.037437957095845888e+02 7.046625536383428479e-01 1.482128191414296484e-02
1.101134693877550974e-01 1.046034003588833343e+02 7.174766322933715523e-01 1.499259861677246924e-02
1.110122448979591891e-01 1.054631102072690965e+02 7.304396156150883002e-01 1.516404048081674075e-02
1.119110204081632531e-01 1.063229256092743924e+02 7.435516714891963197e-01 1.533565124707800438e-02
1.128097959183673449e-01 1.071828469152365955e+02 7.568130055793683697e-01 1.550747465635848865e-02
1.137085714285714227e-01 1.080428744716994771e+02 7.702238613495209218e-01 1.567955444946041513e-02
1.146073469387755006e-01 1.089030086218016038e+02 7.837845200863856610e-01 1.585193436718600885e-02
1.155061224489795924e-01 1.097632497056534220e+02 7.974953009223632039e-01 1.602465815033749311e-02
1.164048979591836702e-01 1.106235980607023777e+02 8.113565608586549294e-01 1.619776953971709468e-02
1.173036734693877481e-01 1.114840540220876051e+02 8.253686947886714753e-01 1.637131227612703341e-02
1.182024489795918398e-01 1.123446179229824509e+02 8.395321355217070236e-01 1.654533010036954299e-02
1.191012244897959177e-01 1.132052900949288556e+02 8.538473538068789281e-01 1.671986675324683286e-02
1.199999999999999956e-01 1.140660708681596702e+02 8.683148583573304657e-01 1.689496597556113672e-02
1.217772142088827808e-01 1.157684768254366645e+02 8.973744321199634832e-01 1.724441730119005006e-02
1.235544284177655661e-01 1.174713113222566250e+02 9.270442500072295644e-01 1.760311223068185271e-02
1.253316426266483374e-01 1.191745770886617635e+02 9.573405590553991651e-01 1.797122769324778144e-02
1.271088568355311366e-01 1.208782770099207795e+02 9.882799257420641359e-01 1.834894077835191178e-02
1.288860710444139079e-01 1.225824141244907253e+02 1.019879236997120131e+00 1.873642882490686445e-02
1.306632852532967071e-01 1.242869916221068394e+02 1.052155701382756936e+00 1.913386950806552841e-02
1.324404994621794784e-01 1.259920128419928034e+02 1.085126850439149138e+00 1.954144092376497097e-02
1.342177136710622498e-01 1.276974812711867884e+02 1.118810540192828551e+00 1.995932167116497638e-02
1.359949278799450489e-01 1.294034005429770389e+02 1.153224952824926319e+00 2.038769093310545746e-02
1.377721420888278203e-01 1.311097744354416363e+02 1.188388598496717297e+00 2.082672855471533885e-02
1.395493562977106194e-01 1.328166068700893163e+02 1.224320317330076291e+00 2.127661512023716270e-02
1.413265705065933908e-01 1.345239019105939349e+02 1.261039281540626167e+00 2.173753202821030947e-02
1.431037847154761899e-01 1.362316637616223431e+02 1.298564997721558534e+00 2.220966156506264805e-02
1.448809989243589613e-01 1.379398967677481949e+02 1.336917309276209220e+00 2.269318697719925615e-02
1.466582131332417327e-01 1.396486054124507632e+02 1.376116398997644596e+00 2.318829254165368989e-02
1.484354273421245318e-01 1.413577943171940206e+02 1.416182791793608287e+00 2.369516363536265657e-02
1.502126415510073032e-01 1.430674682405831959e+02 1.457137357555308821e+00 2.421398680311777005e-02
1.519898557598901023e-01 1.447776320775967349e+02 1.499001314168628252e+00 2.474494982424233283e-02
1.537670699687728737e-01 1.464882908588887176e+02 1.541796230666407475e+00 2.528824177803516704e-02
1.555442841776556451e-01 1.481994497501630121e+02 1.585544030520579462e+00 2.584405310801830835e-02
1.573214983865384442e-01 1.499111140516123442e+02 1.630266995072960468e+00 2.641257568502066583e-02
1.590987125954212433e-01 1.516232891974233326e+02 1.675987767103606085e+00 2.699400286912484459e-02
1.608759268043040147e-01 1.533359807553437406e+02 1.722729354535690316e+00 2.758852957050049806e-02
1.626531410131867861e-01 1.550491944263113169e+02 1.770515134275919999e+00 2.819635230914335766e-02
1.644303552220695852e-01 1.567629360441409858e+02 1.819368856189544470e+00 2.881766927353506674e-02
1.662075694309523566e-01 1.584772115752685124e+02 1.869314647209065816e+00 2.945268037823621857e-02
1.679847836398351557e-01 1.601920271185516356e+02 1.920377015575807089e+00 3.010158732042109847e-02
1.697619978487179271e-01 1.619073889051233834e+02 1.972580855213492246e+00 3.076459363535890765e-02
1.715392120576006985e-01 1.636233032982990778e+02 2.025951450233071771e+00 3.144190475084540637e-02
1.733164262664834976e-01 1.653397767935337868e+02 2.080514479567999508e+00 3.213372804058291232e-02
1.750936404753662690e-01 1.670568160184307089e+02 2.136296021739223949e+00 3.284027287650703036e-02
1.768708546842490681e-01 1.687744277327973066e+02 2.193322559749163680e+00 3.356175068005407686e-02
1.786480688931318395e-01 1.704926188287491584e+02 2.251620986103928246e+00 3.429837497236064986e-02
1.804252831020146108e-01 1.722113963308607651e+02 2.311218607963092531e+00 3.505036142338614075e-02
1.822024973108974100e-01 1.739307673963615173e+02 2.372143152416296807e+00 3.581792789994441006e-02
1.839797115197802091e-01 1.756507393153751764e+02 2.434422771885974335e+00 3.660129451263076372e-02
1.857569257286629805e-01 1.773713195112052006e+02 2.498086049655501739e+00 3.740068366162686841e-02
1.875341399375457518e-01 1.790925155406597753e+02 2.563162005522051423e+00 3.821632008136525982e-02
1.893113541464285510e-01 1.808143350944210397e+02 2.629680101573426576e+00 3.904843088403240486e-02
1.910885683553113223e-01 1.825367859974534497e+02 2.697670248088144707e+00 3.989724560188784991e-02
1.928657825641941215e-01 1.842598762094541485e+02 2.767162809558039172e+00 4.076299622837539771e-02
1.946429967730768928e-01 1.859836138253411093e+02 2.838188610832588665e+00 4.164591725799995231e-02
1.964202109819596642e-01 1.877080070757810972e+02 2.910778943384232598e+00 4.254624572494265095e-02
1.981974251908424633e-01 1.894330643277557158e+02 2.984965571693835251e+00 4.346422124038475110e-02
1.999746393997252625e-01 1.911587940851646010e+02 3.060780739755496249e+00 4.440008602850974845e-02
2.017518536086080339e-01 1.928852049894650804e+02 3.138257177699852907e+00 4.535408496115148069e-02
2.035290678174908052e-01 1.946123058203497180e+02 3.217428108534995612e+00 4.632646559105414730e-02
2.053062820263735766e-01 1.963401054964579941e+02 3.298327255004078751e+00 4.731747818370984210e-02
2.070834962352563757e-01 1.980686130761234836e+02 3.380988846558701244e+00 4.832737574773666306e-02
2.844899554957613375e-01 2.745945018530855464e+02 1.116477511662546718e+01 1.534175489926462577e-01
3.618964147562663269e-01 3.542938432187380613e+02 2.768943289018187315e+01 2.585077222375558592e-01
4.393028740167712609e-01 4.384761013126994840e+02 5.402642779740661183e+01 3.635978954824654052e-01
5.167093332772763059e-01 5.281966044393551556e+02 9.156037360573918704e+01 4.686880687273751178e-01
5.941157925377812399e-01 6.243319330581541635e+02 1.392377301887834165e+02 5.210868849883347753e-01
6.715222517982861739e-01 7.272066109796771798e+02 1.950271374465359031e+02 5.619515373143133541e-01
7.489287110587912188e-01 8.369699899423691249e+02 2.590398975520648719e+02 6.028161896402919329e-01
8.263351703192961528e-01 9.537928636409394585e+02 3.319459719520896215e+02 6.436808419662706227e-01
9.037416295798010868e-01 1.077878804088401921e+03 4.144580994747577734e+02 6.845454942922492014e-01
9.811480888403061318e-01 1.209459454976503366e+03 5.073338255180685792e+02 7.254101466182278912e-01
1.058554548100811177e+00 1.348791491803440067e+03 6.113778189686365749e+02 7.662747989442064700e-01
1.135961007361316000e+00 1.496154654113974857e+03 7.274444146943876603e+02 8.071394512701850488e-01
1.213367466621821045e+00 1.651850496859782197e+03 8.564403509217809187e+02 8.480041035961637386e-01
1.290773925882326090e+00 1.816046781118063336e+03 9.782756970002783419e+02 6.443567797210569825e-01
1.368180385142830913e+00 1.986790099286304212e+03 1.083701144029318129e+03 5.921951560573635032e-01
1.445586844403335958e+00 2.163367091598058778e+03 1.185354687485116301e+03 5.600976846204018811e-01
1.522993303663841003e+00 2.345318228230280511e+03 1.284272466749273917e+03 5.280002131834401480e-01
1.600399762924345826e+00 2.532216436490572505e+03 1.379890348588881352e+03 4.959027417464785259e-01
1.677806222184850871e+00 2.723649876250647139e+03 1.471692636787844322e+03 4.638052703095168483e-01
1.755212681445355916e+00 2.919222021759040672e+03 1.559210158136691007e+03 4.317077988725551707e-01
1.832619140705860739e+00 3.118551643112120473e+03 1.642018292262804380e+03 3.996103274355935486e-01
1.910025599966365784e+00 3.321324337624651889e+03 1.723795214431836712e+03 4.069299604253551195e-01
1.987432059226870829e+00 3.527479834876275618e+03 1.809362800187857374e+03 4.230462051351210340e-01
2.064838518487375651e+00 3.737060198178690371e+03 1.899729849247193897e+03 4.391624498448869485e-01
