# density  energy_density  pressure   sound_speed_squared  [All in nuclear units]
2.720000000000000022e-14 2.529924618736292620e-11 1.061056609100270887e-19 3.766610435412189122e-08
1.269999999999999890e-13 1.181251617980081254e-10 4.870113551826584858e-18 6.497781477172163475e-08
6.929999999999999754e-13 6.445728594625782745e-10 1.018299070687946017e-16 3.033770597342807186e-07
6.295000000000000137e-12 5.855111460395753757e-09 5.487150723824490656e-15 1.763710043904196507e-06
1.581000000000000150e-11 1.470523320212576141e-08 2.904239460150760759e-14 3.559434472327477622e-06
3.971999999999999958e-11 3.694456170323160790e-08 1.439340266754906811e-13 6.772854871245677111e-06
9.975999999999999982e-11 9.278976412613005154e-08 6.812143616221268841e-13 1.246890511177539320e-05
2.505999999999999928e-10 2.330928829758143313e-07 3.107749196951638608e-12 2.212095130576091967e-05
6.294000000000000186e-10 5.854398883216247602e-07 1.363250409771533549e-11 3.761981047239428883e-05
1.581000000000000021e-09 1.470619631082054101e-06 5.726014178088476303e-11 6.095350986710739404e-05
3.971999999999999932e-09 3.694861084648016046e-06 2.210019573374265380e-10 8.628023653304385055e-05
5.000000000000000105e-09 4.651201787816927976e-06 3.071485916280120014e-10 9.387863480799757518e-05
9.975999999999999465e-09 9.280587964640925786e-06 8.385361004129998845e-10 1.356922228656245837e-04
1.989999999999999952e-08 1.851419242998081003e-05 2.287763168863418088e-09 1.782101978513718314e-04
3.972999999999999908e-08 3.696699295748789187e-05 6.061583099087538954e-09 2.308134738384234820e-04
7.925999999999999637e-08 7.375765469301719828e-05 1.575347858094044765e-08 2.960532096713864875e-04
1.580999999999999930e-07 1.471491184379128891e-04 3.910429618672550719e-08 3.402859755131850544e-04
1.991000000000000027e-07 1.853209783927820692e-04 5.252045687899177454e-08 3.626488188833278743e-04
3.155999999999999938e-07 2.938002528823880299e-04 9.730770378831954314e-08 4.630767356912104081e-04
5.000999999999999849e-07 4.656344063839075714e-04 1.837494945860225819e-07 5.430301232045120323e-04
6.295999999999999732e-07 5.862651417037388971e-04 2.503103884558263872e-07 5.605192962670089638e-04
9.666999999999999941e-07 9.003386739730535665e-04 4.324450868778576936e-07 5.993081670211623108e-04
1.531999999999999901e-06 1.427170885631398036e-03 7.780217275717420968e-07 7.125938556504039095e-04
2.506999999999999883e-06 2.336134972129507662e-03 1.471005394641589826e-06 8.121876172121876309e-04
3.974000000000000407e-06 3.704315759716615697e-03 2.695705763844323844e-06 9.780674166779417152e-04
4.830000000000000343e-06 4.502887798316278223e-03 3.503988717694660908e-06 1.046253037768318664e-03
6.080999999999999885e-06 5.670217999231269741e-03 4.731126407333307547e-06 1.056224360839501646e-03
7.930000000000000308e-06 7.396012414119570652e-03 6.599662989063778187e-06 1.109203753630785610e-03
9.982000000000000313e-06 9.311815711689977113e-03 8.879881089227186733e-06 1.271216815433141075e-03
1.256999999999999993e-05 1.172874412604260098e-02 1.207676739913533738e-05 1.374195438212825332e-03
1.521999999999999997e-05 1.420427250933824909e-02 1.547541302213394990e-05 1.371610497379100249e-03
1.991000000000000080e-05 1.858690797761085312e-02 2.160710455847765458e-05 1.426578142835871997e-03
2.506999999999999883e-05 2.341050104039446925e-02 2.908031724375689851e-05 1.672007475975408053e-03
2.790999999999999875e-05 2.606604784714952258e-02 3.357009132255487721e-05 1.709425557744154774e-03
3.806999999999999973e-05 3.556967988784798945e-02 4.986781576435106434e-05 1.720407281314112165e-03
5.063000000000000145e-05 4.732434580343149871e-02 7.073400252905581275e-05 1.829889149838781265e-03
6.592000000000000583e-05 6.164112392498975052e-02 9.765037643900635188e-05 1.930242980462695823e-03
8.433000000000000066e-05 7.888776783401378612e-02 1.317235490470395893e-04 2.021055815200022837e-03
1.062000000000000064e-04 9.938561165478684845e-02 1.740088341640037047e-04 2.104789529260958983e-03
1.321000000000000126e-04 1.236720406455826121e-01 2.260189757651373944e-04 2.178291718403657477e-03
1.623999999999999901e-04 1.520974545104751274e-01 2.888169908545388338e-04 2.240170365918073281e-03
1.689999999999999879e-04 1.582907717069566844e-01 3.027354772999506964e-04 2.254509350360745651e-03
1.758999999999999930e-04 1.647661861691531171e-01 3.173785841705756782e-04 2.268169273277113179e-03
1.830000000000000029e-04 1.714298948183871907e-01 3.325196584577469103e-04 2.276170334580628063e-03
1.901999999999999882e-04 1.781880600978280049e-01 3.479577791899843742e-04 2.292561569242367037e-03
1.977000000000000079e-04 1.852284385240466902e-01 3.641242634600037713e-04 2.299943765467868384e-03
2.054000000000000053e-04 1.924572004474696396e-01 3.808304060475003897e-04 2.322187632288155723e-03
2.079000000000000119e-04 1.948043378760714872e-01 3.864137987380476553e-04 2.435429768083530178e-03
2.081999999999999921e-04 1.950859988578999005e-01 3.870314100985603909e-04 1.950065624557156818e-03
2.090999999999999868e-04 1.959309855029948977e-01 3.881261957135444685e-04 6.411875526909013856e-04
2.159999999999999919e-04 2.024093317906446865e-01 3.940874488768042125e-04 1.199166870571831411e-03
2.231000000000000019e-04 2.090756740932291913e-01 4.013938420547467825e-04 9.928616047829054436e-04
2.311000000000000066e-04 2.165873044433437034e-01 4.085241694843774404e-04 9.056166966301716637e-04
2.401000000000000085e-04 2.250381721984245909e-01 4.159700687886608468e-04 8.565463878902855599e-04
2.500000000000000052e-04 2.343344406330727658e-01 4.237602369176299592e-04 8.194318812157330018e-04
2.642999999999999733e-04 2.477629128650125634e-01 4.345596643180389446e-04 7.890063723638815647e-04
3.052999999999999941e-04 2.862671839140227270e-01 4.644058706720978241e-04 7.612775562167708662e-04
3.533000000000000224e-04 3.313503829113090826e-01 4.987577676308450197e-04 7.626578558207241024e-04
4.075999999999999871e-04 3.823564017794535141e-01 5.381334366106255759e-04 7.813048116943254948e-04
4.679999999999999915e-04 4.390986251953180042e-01 5.832692638200615834e-04 8.096035963157804938e-04
5.341000000000000261e-04 5.012024644415256081e-01 6.346556894078133086e-04 8.452514814113673558e-04
6.059000000000000366e-04 5.686690698184251325e-01 6.930641302632923034e-04 8.862253587289389486e-04
7.661000000000000275e-04 7.192254882508629654e-01 8.328184776562496576e-04 9.702780530519144065e-04
1.262000000000000101e-03 1.185459127778160093e+00 1.338484980802662205e-03 1.198863597978450275e-03
1.894999999999999983e-03 1.780909071169781921e+00 2.123481960401060308e-03 1.437771491635827115e-03
2.673000000000000029e-03 2.513147344746868850e+00 3.261860252001994032e-03 1.671524566936786766e-03
3.605999999999999830e-03 3.391736073717691369e+00 4.828136641022434151e-03 1.893900408978071038e-03
4.709999999999999777e-03 4.431905410739045870e+00 6.903512974832482635e-03 2.096551352830673849e-03
7.496000000000000059e-03 7.058993649504918366e+00 1.289742191321638018e-02 2.466596387205546859e-03
1.119999999999999989e-02 1.055540362104863661e+01 2.212077014004794340e-02 2.809304433764861584e-03
1.600000000000000033e-02 1.509117352747679952e+01 3.559566804390756900e-02 3.132325055719984222e-03
2.206999999999999934e-02 2.083310616724802244e+01 5.457322122755020599e-02 3.477840948757840792e-03
2.947999999999999926e-02 2.785007348564149154e+01 8.049103664263126956e-02 3.909302116317729670e-03
4.268000000000000266e-02 4.036707211535221518e+01 1.353887601042819133e-01 4.862066536253286525e-03
6.219999999999999835e-02 5.891246509830522626e+01 2.419691225623893105e-01 6.630786177272363080e-03
7.316999999999999893e-02 6.935151695866235855e+01 3.161896974764099033e-01 7.588671314871411888e-03
7.595999999999999974e-02 7.200836722020332559e+01 3.371250777904805096e-01 8.170805199905812125e-03
7.685877551020407761e-02 7.286441683572702743e+01 3.442122231656306597e-01 8.386976920543187664e-03
7.775755102040816935e-02 7.372055043772745364e+01 3.514897572816585436e-01 8.613944323778384426e-03
7.865632653061224722e-02 7.457676930864026588e+01 3.589668025142456198e-01 8.851311492149089438e-03
7.955510204081632508e-02 7.543307480393096398e+01 3.666521464722986012e-01 9.098682508193003601e-03
8.045387755102040295e-02 7.628946834583692294e+01 3.745542419562263303e-01 9.355661454447815675e-03
8.135265306122449469e-02 7.714595141738865891e+01 3.826812069124857496e-01 9.621852413451221359e-03
8.225142857142857256e-02 7.800252555669482035e+01 3.910408243832722563e-01 9.896859467740904207e-03
8.315020408163265042e-02 7.885919235147645168e+01 3.996405424503509662e-01 1.018028669985456686e-02
8.404897959183672829e-02 7.971595343383687293e+01 4.084874741721294389e-01 1.047173819232989113e-02
8.494775510204082003e-02 8.057281047525476936e+01 4.175883975131784998e-01 1.077081802770458660e-02
8.584653061224489790e-02 8.142976518178809897e+01 4.269497552654989980e-01 1.107713028851632642e-02
8.674530612244897576e-02 8.228681928947811741e+01 4.365776549609227675e-01 1.139027905730281148e-02
8.764408163265305363e-02 8.314397455994328823e+01 4.464778687741151608e-01 1.170986841660173576e-02
8.854285714285714537e-02 8.400123277615219308e+01 4.566558334157263532e-01 1.203550244895079668e-02
8.944163265306122323e-02 8.485859573836771119e+01 4.671166500153073331e-01 1.236678523688767260e-02
9.034040816326530110e-02 8.571606526025232142e+01 4.778650839936778860e-01 1.270332086295006269e-02
9.123918367346939284e-02 8.657364316512769165e+01 4.889055649244901658e-01 1.304471340967566610e-02
9.213795918367347071e-02 8.743133128237973040e+01 5.002421863847956729e-01 1.339056695960216814e-02
9.303673469387754857e-02 8.828913144400254964e+01 5.118787057944781393e-01 1.374048559526725929e-02
9.393551020408162644e-02 8.914704548127487271e+01 5.238185442444618367e-01 1.409407339920864047e-02
9.483428571428570431e-02 9.000507522156117091e+01 5.360647863136597246e-01 1.445093445396398828e-02
9.573306122448979605e-02 9.086322248523252654e+01 5.486201798746668246e-01 1.481067284207102271e-02
9.663183673469387391e-02 9.172148908270182233e+01 5.614871358882488339e-01 1.517289264606740823e-02
9.753061224489795178e-02 9.257987681156646431e+01 5.746677281867190734e-01 1.553719794849084922e-02
9.842938775510204352e-02 9.343838745385485822e+01 5.881636932463277789e-01 1.590319283187904484e-02
9.932816326530612139e-02 9.429702277337133864e+01 6.019764299488314929e-01 1.627048137876967171e-02
1.002269387755101993e-01 9.515578451313461983e+01 6.161069993324415073e-01 1.663866767170043420e-02
1.011257142857142910e-01 9.601467439290638595e+01 6.305561243323793974e-01 1.700735579320902802e-02
1.020244897959183689e-01 9.687369410680486226e+01 6.453241895113003279e-01 1.737614982583313150e-02
1.029232653061224467e-01 9.773284532100059607e+01 6.604112407798777840e-01 1.774465385211044383e-02
1.038220408163265246e-01 9.859212967148975792e+01 6.758169851078601464e-01 1.811247195457865722e-02
1.047208163265306025e-01 9.945154876194233395e+01 6.915407902259458339e-01 1.847920821577546738e-02
1.056195918367346942e-01 1.003111041616214010e+02 7.075816843188412752e-01 1.884446671823857000e-02
1.065183673469387721e-01 1.011707974033707842e+02 7.239383557098917343e-01 1.920785154450564691e-02
1.074171428571428499e-01 1.020306299816674596e+02 7.406091525376984341e-01 1.956896677711439381e-02
1.083159183673469417e-01 1.028906033507374786e+02 7.575920824251514141e-01 1.992741649860250985e-02
1.092146938775510195e-01 1.037507189227300444e+02 7.748848121413313139e-01 2.028280479150768034e-02
1.101134693877550974e-01 1.046109780659504622e+02 7.924846672567551487e-01 2.063473573836760444e-02
1.110122448979591891e-01 1.054713821031470076e+02 8.103886317924490212e-01 2.098281342171996744e-02
1.119110204081632531e-01 1.063319323098504441e+02 8.285933478633578098e-01 2.132664192410246157e-02
1.128097959183673449e-01 1.071926299127645876e+02 8.470951153166178527e-01 2.166582532805278946e-02
1.137085714285714227e-01 1.080534760882047465e+02 8.658898913652208762e-01 2.199996771610862600e-02
1.146073469387755006e-01 1.089144719605826026e+02 8.849732902176362659e-01 2.232867317080768424e-02
1.155061224489795924e-01 1.097756186009360420e+02 9.043405827039480149e-01 2.265154577468764252e-02
1.164048979591836702e-01 1.106369170255016456e+02 9.239866958990923251e-01 2.296818961028620348e-02
1.173036734693877481e-01 1.114983681943281084e+02 9.439062127437932714e-01 2.327820876014104201e-02
1.182024489795918398e-01 1.123599730099299734e+02 9.640933716637973827e-01 2.358120730678987462e-02
1.191012244897959177e-01 1.132217323159779880e+02 9.845420661880298629e-01 2.387678933277037618e-02
1.199999999999999956e-01 1.140836468960283270e+02 1.005245844566305058e+00 2.416455892062024588e-02
1.211605306693769174e-01 1.151968124177459885e+02 1.032347593853297996e+00 2.452852317085586764e-02
1.223210613387538392e-01 1.163102395200899082e+02 1.059865058172340113e+00 2.489984884331743545e-02
1.234815920081307611e-01 1.174239297055694351e+02 1.087806724195376162e+00 2.527864061517249780e-02
1.246421226775076829e-01 1.185378845288015270e+02 1.116181203966843061e+00 2.566500297919531090e-02
1.258026533468845909e-01 1.196521055962225830e+02 1.144997234967933597e+00 2.605904027549402202e-02
1.269631840162615266e-01 1.207665945658125679e+02 1.174263680221026673e+00 2.646085672270929653e-02
1.281237146856384346e-01 1.218813531468288573e+02 1.203989528433828449e+00 2.687055644867833784e-02
1.292842453550153703e-01 1.229963830995528440e+02 1.234183894182785624e+00 2.728824352055881849e-02
1.304447760243922783e-01 1.241116862350461219e+02 1.264856018135293914e+00 2.771402197440793469e-02
1.316053066937692140e-01 1.252272644149184799e+02 1.296015267310259622e+00 2.814799584421451284e-02
1.327658373631461219e-01 1.263431195511060423e+02 1.327671135376529366e+00 2.859026919037987655e-02
1.339263680325230577e-01 1.274592536056600522e+02 1.359833242988740976e+00 2.904094612764628741e-02
1.350868987018999656e-01 1.285756685905455186e+02 1.392511338160108414e+00 2.950013085247258152e-02
1.362474293712769013e-01 1.296923665674515860e+02 1.425715296671693499e+00 2.996792766985462153e-02
1.374079600406538093e-01 1.308093496476101052e+02 1.459455122517674619e+00 3.044444101959158447e-02
1.385684907100307450e-01 1.319266199916262110e+02 1.493740948386170775e+00 3.092977550199833142e-02
1.397290213794076530e-01 1.330441798093167449e+02 1.528583036175130472e+00 3.142403590306350886e-02
1.408895520487845887e-01 1.341620313595599043e+02 1.563991777542849126e+00 3.192732721905681970e-02
1.420500827181614967e-01 1.352801769501545266e+02 1.599977694492628943e+00 3.243975468058165473e-02
1.432106133875384324e-01 1.363986189376874449e+02 1.636551439991150936e+00 3.296142377608230617e-02
1.443711440569153404e-01 1.375173597274124688e+02 1.673723798620077474e+00 3.349244027479990338e-02
1.455316747262922761e-01 1.386364017731363276e+02 1.711505687260463704e+00 3.403291024918365243e-02
1.466922053956691840e-01 1.397557475771159261e+02 1.749908155809501542e+00 3.458294009675748348e-02
1.478527360650461198e-01 1.408753996899627339e+02 1.788942387929183253e+00 3.514263656144504117e-02
1.490132667344230277e-01 1.419953607105580602e+02 1.828619701826415644e+00 3.571210675435433635e-02
1.501737974037999634e-01 1.431156332859757470e+02 1.868951551064180983e+00 3.629145817402529978e-02
1.513343280731768714e-01 1.442362201114138713e+02 1.909949525403282333e+00 3.688079872614141025e-02
1.524948587425538071e-01 1.453571239301358560e+02 1.951625351674278752e+00 3.748023674270833244e-02
1.536553894119307151e-01 1.464783475334194804e+02 1.993990894679156911e+00 3.808988100070151428e-02
1.548159200813076508e-01 1.475998937605143055e+02 2.037058158122352580e+00 3.870984074018477689e-02
1.559764507506845588e-01 1.487217654986076525e+02 2.080839285570677433e+00 3.934022568190209679e-02
1.571369814200614945e-01 1.498439656827992792e+02 2.125346561441772586e+00 3.998114604434457875e-02
1.582975120894384025e-01 1.509664972960833893e+02 2.170592412020652340e+00 4.063271256029432621e-02
1.594580427588153382e-01 1.520893633693389120e+02 2.216589406503969961e+00 4.129503649284756162e-02
1.606185734281922461e-01 1.532125669813286208e+02 2.263350258071574306e+00 4.196822965091782237e-02
1.617791040975691819e-01 1.543361112587046762e+02 2.310887824984998673e+00 4.265240440422170265e-02
1.629396347669460898e-01 1.554599993760234327e+02 2.359215111712449797e+00 4.334767369773389473e-02
1.641001654363230255e-01 1.565842345557667272e+02 2.408345270079978562e+00 4.405415106569679495e-02
1.652606961056999335e-01 1.577088200683718071e+02 2.458291600448373693e+00 4.477195064497890148e-02
1.664212267750768692e-01 1.588337592322680507e+02 2.509067552915439148e+00 4.550118718805589574e-02
1.675817574444537772e-01 1.599590554139210212e+02 2.560686728543278168e+00 4.624197607541286753e-02
1.687422881138307129e-01 1.610847120278847342e+02 2.613162880610221173e+00 4.699443332744856344e-02
1.699028187832076209e-01 1.622107325368609168e+02 2.666509915886994264e+00 4.775867561586901594e-02
1.710633494525845566e-01 1.633371204517644060e+02 2.720741895936805488e+00 4.853482027457110826e-02
1.722238801219614646e-01 1.644638793317969601e+02 2.775873038438941176e+00 4.932298531001601261e-02
1.733844107913384003e-01 1.655910127845276634e+02 2.831917718535553075e+00 5.012328941109336217e-02
1.745449414607153082e-01 1.667185244659799253e+02 2.888890470201237015e+00 5.093585195847510211e-02
1.757054721300922440e-01 1.678464180807259822e+02 2.946805987635085611e+00 5.176079303345998417e-02
1.768660027994691519e-01 1.689746973819873119e+02 3.005679126674819290e+00 5.259823342630741416e-02
2.548891455994800048e-01 2.468252154331251234e+02 1.440178309050199701e+01 2.351293035050101288e-01
3.329122883994908300e-01 3.296691676222409910e+02 3.558839021972131178e+01 2.753561746903031571e-01
4.109354311995017106e-01 4.180530102618746469e+02 6.174873773177790781e+01 3.155830458755962131e-01
4.889585739995124802e-01 5.119041421230414244e+02 9.330416018373554721e+01 3.558099170608892692e-01
5.669817167995233609e-01 6.112437924815036467e+02 1.307027327961243088e+02 3.960367882461822697e-01
6.450048595995342415e-01 7.161513554002440287e+02 1.744193898961145806e+02 4.362636594314753813e-01
7.230280023995450112e-01 8.267463617057254623e+02 2.249570146890554270e+02 4.764905306167684373e-01
8.010511451995558918e-01 9.431784765193268640e+02 2.828479162453430718e+02 5.167174018020614934e-01
8.790742879995667725e-01 1.065621589051998626e+03 3.486555010081051478e+02 5.569442729873546050e-01
9.570974307995775421e-01 1.194270173194882318e+03 4.229760696135483613e+02 5.971711441726474945e-01
1.035120573599588312e+00 1.329336994399128798e+03 5.064407143184016604e+02 6.373980153579406061e-01
1.113143716399599192e+00 1.471051659069790503e+03 5.997173099095082307e+02 6.776248865432337176e-01
1.191166859199610073e+00 1.619659715951091130e+03 7.035125983894007504e+02 7.178517577285267182e-01
1.269190001999620732e+00 1.775196371257669853e+03 7.990866366141070785e+02 5.175987192301114703e-01
1.347213144799631612e+00 1.935498836657669926e+03 8.583412758346365763e+02 2.261845362716506935e-01
1.425236287599642493e+00 2.098608936558012829e+03 9.084383812381049665e+02 3.863293718328401072e-01
1.503259430399653374e+00 2.265146967584320464e+03 9.863485573339144139e+02 5.464742073940295208e-01
1.581282573199664254e+00 2.436436777197666743e+03 1.095982194023401462e+03 7.288978837693221857e-01
1.659305715999674913e+00 2.613903384204112626e+03 1.233537334502163503e+03 8.184427789424536526e-01
1.737328858799685793e+00 2.798288994442563308e+03 1.383889718287168989e+03 8.126788756335977526e-01
1.815352001599696674e+00 2.989529287892200045e+03 1.538730839982730458e+03 8.069149723247418526e-01
1.893375144399707555e+00 3.187519021652990432e+03 1.697897036390635094e+03 8.011510690158859527e-01
1.971398287199718435e+00 3.392154954256614928e+03 1.861228064125771652e+03 7.953871657070300527e-01
2.049421429999729316e+00 3.603335740682916821e+03 2.028566969935356155e+03 7.896232623981741527e-01
