# density  energy_density  pressure   sound_speed_squared  [All in nuclear units]
2.720000000000000022e-14 2.529924618736292620e-11 1.061056609100270887e-19 3.766610435412189122e-08
1.269999999999999890e-13 1.181251617980081254e-10 4.870113551826584858e-18 6.497781477172163475e-08
6.929999999999999754e-13 6.445728594625782745e-10 1.018299070687946017e-16 3.033770597342807186e-07
6.295000000000000137e-12 5.855111460395753757e-09 5.487150723824490656e-15 1.763710043904196507e-06
1.581000000000000150e-11 1.470523320212576141e-08 2.904239460150760759e-14 3.559434472327477622e-06
3.971999999999999958e-11 3.694456170323160790e-08 1.439340266754906811e-13 6.772854871245677111e-06
9.975999999999999982e-11 9.278976412613005154e-08 6.812143616221268841e-13 1.246890511177539320e-05
2.505999999999999928e-10 2.330928829758143313e-07 3.107749196951638608e-12 2.212095130576091967e-05
6.294000000000000186e-10 5.854398883216247602e-07 1.363250409771533549e-11 3.761981047239428883e-05
1.581000000000000021e-09 1.470619631082054101e-06 5.726014178088476303e-11 6.095350986710739404e-05
3.971999999999999932e-09 3.694861084648016046e-06 2.210019573374265380e-10 8.628023653304385055e-05
5.000000000000000105e-09 4.651201787816927976e-06 3.071485916280120014e-10 9.387863480799757518e-05
9.975999999999999465e-09 9.280587964640925786e-06 8.385361004129998845e-10 1.356922228656245837e-04
1.989999999999999952e-08 1.851419242998081003e-05 2.287763168863418088e-09 1.782101978513718314e-04
3.972999999999999908e-08 3.696699295748789187e-05 6.061583099087538954e-09 2.308134738384234820e-04
7.925999999999999637e-08 7.375765469301719828e-05 1.575347858094044765e-08 2.960532096713864875e-04
1.580999999999999930e-07 1.471491184379128891e-04 3.910429618672550719e-08 3.402859755131850544e-04
1.991000000000000027e-07 1.853209783927820692e-04 5.252045687899177454e-08 3.626488188833278743e-04
3.155999999999999938e-07 2.938002528823880299e-04 9.730770378831954314e-08 4.630767356912104081e-04
5.000999999999999849e-07 4.656344063839075714e-04 1.837494945860225819e-07 5.430301232045120323e-04
6.295999999999999732e-07 5.862651417037388971e-04 2.503103884558263872e-07 5.605192962670089638e-04
9.666999999999999941e-07 9.003386739730535665e-04 4.324450868778576936e-07 5.993081670211623108e-04
1.531999999999999901e-06 1.427170885631398036e-03 7.780217275717420968e-07 7.125938556504039095e-04
2.506999999999999883e-06 2.336134972129507662e-03 1.471005394641589826e-06 8.121876172121876309e-04
3.974000000000000407e-06 3.704315759716615697e-03 2.695705763844323844e-06 9.780674166779417152e-04
4.830000000000000343e-06 4.502887798316278223e-03 3.503988717694660908e-06 1.046253037768318664e-03
6.080999999999999885e-06 5.670217999231269741e-03 4.731126407333307547e-06 1.056224360839501646e-03
7.930000000000000308e-06 7.396012414119570652e-03 6.599662989063778187e-06 1.109203753630785610e-03
9.982000000000000313e-06 9.311815711689977113e-03 8.879881089227186733e-06 1.271216815433141075e-03
1.256999999999999993e-05 1.172874412604260098e-02 1.207676739913533738e-05 1.374195438212825332e-03
1.521999999999999997e-05 1.420427250933824909e-02 1.547541302213394990e-05 1.371610497379100249e-03
1.991000000000000080e-05 1.858690797761085312e-02 2.160710455847765458e-05 1.426578142835871997e-03
2.506999999999999883e-05 2.341050104039446925e-02 2.908031724375689851e-05 1.672007475975408053e-03
2.790999999999999875e-05 2.606604784714952258e-02 3.357009132255487721e-05 1.709425557744154774e-03
3.806999999999999973e-05 3.556967988784798945e-02 4.986781576435106434e-05 1.720407281314112165e-03
5.063000000000000145e-05 4.732434580343149871e-02 7.073400252905581275e-05 1.829889149838781265e-03
6.592000000000000583e-05 6.164112392498975052e-02 9.765037643900635188e-05 1.930242980462695823e-03
8.433000000000000066e-05 7.888776783401378612e-02 1.317235490470395893e-04 2.021055815200022837e-03
1.062000000000000064e-04 9.938561165478684845e-02 1.740088341640037047e-04 2.104789529260958983e-03
1.321000000000000126e-04 1.236720406455826121e-01 2.260189757651373944e-04 2.178291718403657477e-03
1.623999999999999901e-04 1.520974545104751274e-01 2.888169908545388338e-04 2.240170365918073281e-03
1.689999999999999879e-04 1.582907717069566844e-01 3.027354772999506964e-04 2.254509350360745651e-03
1.758999999999999930e-04 1.647661861691531171e-01 3.173785841705756782e-04 2.268169273277113179e-03
1.830000000000000029e-04 1.714298948183871907e-01 3.325196584577469103e-04 2.276170334580628063e-03
1.901999999999999882e-04 1.781880600978280049e-01 3.479577791899843742e-04 2.292561569242367037e-03
1.977000000000000079e-04 1.852284385240466902e-01 3.641242634600037713e-04 2.299943765467868384e-03
2.054000000000000053e-04 1.924572004474696396e-01 3.808304060475003897e-04 2.322187632288155723e-03
2.079000000000000119e-04 1.948043378760714872e-01 3.864137987380476553e-04 2.435429768083530178e-03
2.081999999999999921e-04 1.950859988578999005e-01 3.870314100985603909e-04 1.950065624557156818e-03
2.090999999999999868e-04 1.959309855029948977e-01 3.881261957135444685e-04 6.411875526909013856e-04
2.159999999999999919e-04 2.024093317906446865e-01 3.940874488768042125e-04 1.199166870571831411e-03
2.231000000000000019e-04 2.090756740932291913e-01 4.013938420547467825e-04 9.928616047829054436e-04
2.311000000000000066e-04 2.165873044433437034e-01 4.085241694843774404e-04 9.056166966301716637e-04
2.401000000000000085e-04 2.250381721984245909e-01 4.159700687886608468e-04 8.565463878902855599e-04
2.500000000000000052e-04 2.343344406330727658e-01 4.237602369176299592e-04 8.194318812157330018e-04
2.642999999999999733e-04 2.477629128650125634e-01 4.345596643180389446e-04 7.890063723638815647e-04
3.052999999999999941e-04 2.862671839140227270e-01 4.644058706720978241e-04 7.612775562167708662e-04
3.533000000000000224e-04 3.313503829113090826e-01 4.987577676308450197e-04 7.626578558207241024e-04
4.075999999999999871e-04 3.823564017794535141e-01 5.381334366106255759e-04 7.813048116943254948e-04
4.679999999999999915e-04 4.390986251953180042e-01 5.832692638200615834e-04 8.096035963157804938e-04
5.341000000000000261e-04 5.012024644415256081e-01 6.346556894078133086e-04 8.452514814113673558e-04
6.059000000000000366e-04 5.686690698184251325e-01 6.930641302632923034e-04 8.862253587289389486e-04
7.661000000000000275e-04 7.192254882508629654e-01 8.328184776562496576e-04 9.702780530519144065e-04
1.262000000000000101e-03 1.185459127778160093e+00 1.338484980802662205e-03 1.198863597978450275e-03
1.894999999999999983e-03 1.780909071169781921e+00 2.123481960401060308e-03 1.437771491635827115e-03
2.673000000000000029e-03 2.513147344746868850e+00 3.261860252001994032e-03 1.671524566936786766e-03
3.605999999999999830e-03 3.391736073717691369e+00 4.828136641022434151e-03 1.893900408978071038e-03
4.709999999999999777e-03 4.431905410739045870e+00 6.903512974832482635e-03 2.096551352830673849e-03
7.496000000000000059e-03 7.058993649504918366e+00 1.289742191321638018e-02 2.466596387205546859e-03
1.119999999999999989e-02 1.055540362104863661e+01 2.212077014004794340e-02 2.809304433764861584e-03
1.600000000000000033e-02 1.509117352747679952e+01 3.559566804390756900e-02 3.132325055719984222e-03
2.206999999999999934e-02 2.083310616724802244e+01 5.457322122755020599e-02 3.477840948757840792e-03
2.947999999999999926e-02 2.785007348564149154e+01 8.049103664263126956e-02 3.909302116317729670e-03
4.268000000000000266e-02 4.036707211535221518e+01 1.353887601042819133e-01 4.862066536253286525e-03
6.219999999999999835e-02 5.891246509830522626e+01 2.419691225623893105e-01 6.630786177272363080e-03
7.316999999999999893e-02 6.935151695866235855e+01 3.161896974764099033e-01 7.588671314871411888e-03
7.595999999999999974e-02 7.200836722020332559e+01 3.371250777904805096e-01 8.170805199905812125e-03
7.685877551020407761e-02 7.286441677076628309e+01 3.442011061680536610e-01 8.361006671889568975e-03
7.775755102040816935e-02 7.372055000647098666e+01 3.514380394726598356e-01 8.545077071371637648e-03
7.865632653061224722e-02 7.457676779074212448e+01 3.588308099479595725e-01 8.723350411315361486e-03
7.955510204081632508e-02 7.543307091097722150e+01 3.663746341414814145e-01 8.896160704684108120e-03
8.045387755102040295e-02 7.628946008433634063e+01 3.740650129891273101e-01 9.063841964441227833e-03
8.135265306122449469e-02 7.714593596327416947e+01 3.818977319087706324e-01 9.226728203550079582e-03
8.225142857142857256e-02 7.800249914082841940e+01 3.898688609019199114e-01 9.385153434974017120e-03
8.315020408163265042e-02 7.885915015567823616e+01 3.979747546625223009e-01 9.539451671676392464e-03
8.404897959183672829e-02 7.971588949698556803e+01 4.062120526920673935e-01 9.689956926620566305e-03
8.494775510204082003e-02 8.057271760902986557e+01 4.145776794202411519e-01 9.837003212769895866e-03
8.584653061224489790e-02 8.142963489564860424e+01 4.230688443304541635e-01 9.980924543087729695e-03
8.674530612244897576e-02 8.228664172449288117e+01 4.316830420896464737e-01 1.012205493053742848e-02
8.764408163265305363e-02 8.314373843110816154e+01 4.404180526818338159e-01 1.026072838808234945e-02
8.854285714285714537e-02 8.400092532284848801e+01 4.492719415449295539e-01 1.039727892868584636e-02
8.944163265306122323e-02 8.485820268263381649e+01 4.582430597104323877e-01 1.053204056531127121e-02
9.034040816326530110e-02 8.571557077255755530e+01 4.673300439456292699e-01 1.066534731092198644e-02
9.123918367346939284e-02 8.657302983735144153e+01 4.765318168980111624e-01 1.079753317848134234e-02
9.213795918367347071e-02 8.743058010771609645e+01 4.858475872416511132e-01 1.092893218095270132e-02
9.303673469387754857e-02 8.828822180352234739e+01 4.952768498253413143e-01 1.105987833129940846e-02
9.393551020408162644e-02 8.914595513689094730e+01 5.048193858223237740e-01 1.119070564248482794e-02
9.483428571428570431e-02 9.000378031515491273e+01 5.144752628814952544e-01 1.132174812747231349e-02
9.573306122448979605e-02 9.086169754371231022e+01 5.242448352800027633e-01 1.145333979922522061e-02
9.663183673469387391e-02 9.171970702877192139e+01 5.341287440771796957e-01 1.158581467070690478e-02
9.753061224489795178e-02 9.257780897999923297e+01 5.441279172698120226e-01 1.171950675488072149e-02
9.842938775510204352e-02 9.343600361306609159e+01 5.542435699487484602e-01 1.185475006471002971e-02
9.932816326530612139e-02 9.429429115210798784e+01 5.644772044569038583e-01 1.199187861315817970e-02
1.002269387755101993e-01 9.515267183209481061e+01 5.748306105487320794e-01 1.213122641318852696e-02
1.011257142857142910e-01 9.601114590111740199e+01 5.853058655512689556e-01 1.227312747776443738e-02
1.020244897959183689e-01 9.686971362259437512e+01 5.959053345268725543e-01 1.241791581984925605e-02
1.029232653061224467e-01 9.772837527740267660e+01 6.066316704378145186e-01 1.256592545240633671e-02
1.038220408163265246e-01 9.858713116593504822e+01 6.174878143128924579e-01 1.271749038839904353e-02
1.047208163265306025e-01 9.944598161008795500e+01 6.284769954162598982e-01 1.287294464079073025e-02
1.056195918367346942e-01 1.003049269551821112e+02 6.396027314186888413e-01 1.303262222254475064e-02
1.065183673469387721e-01 1.011639675718198532e+02 6.508688285714974153e-01 1.319685714662446191e-02
1.074171428571428499e-01 1.020231038576809226e+02 6.622793818833967450e-01 1.336598342599322128e-02
1.083159183673469417e-01 1.028823362392596010e+02 6.738387753005236069e-01 1.354033507361437905e-02
1.092146938775510195e-01 1.037416651735456554e+02 6.855516818899454190e-01 1.372024610245129589e-02
1.101134693877550974e-01 1.046010911496516655e+02 6.974230640269393211e-01 1.390605052546732209e-02
1.110122448979591891e-01 1.054606146903888515e+02 7.094581735863584315e-01 1.409808235562582356e-02
1.119110204081632531e-01 1.063202363537926942e+02 7.216625521384160136e-01 1.429667560589014189e-02
1.128097959183673449e-01 1.071799567346025128e+02 7.340420311492329430e-01 1.450216428922364645e-02
1.137085714285714227e-01 1.080397764656939330e+02 7.466027321864963096e-01 1.471488241858968579e-02
1.146073469387755006e-01 1.088996962194686517e+02 7.593510671306069604e-01 1.493516400695161367e-02
1.155061224489795924e-01 1.097597167092024506e+02 7.722937383916860243e-01 1.516334306727279424e-02
1.164048979591836702e-01 1.106198386903519690e+02 7.854377391328349889e-01 1.539975361251657258e-02
1.173036734693877481e-01 1.114800629618240606e+02 7.987903535000504540e-01 1.564472965564630766e-02
1.182024489795918398e-01 1.123403903672070356e+02 8.123591568592010148e-01 1.589860520962536883e-02
1.191012244897959177e-01 1.132008217959670304e+02 8.261520160404881574e-01 1.616171428741708729e-02
1.199999999999999956e-01 1.140613581846095030e+02 8.401770895908229342e-01 1.643439090198484109e-02
1.228445420637911817e-01 1.167855846153215538e+02 8.862040846380345727e-01 1.735632293498402465e-02
1.256890841275823678e-01 1.195109070765872588e+02 9.348583086236555983e-01 1.834879549858886225e-02
1.285336261913735401e-01 1.222373624477193346e+02 9.863377616289796812e-01 1.941392127767678846e-02
1.313781682551647401e-01 1.249649904249377386e+02 1.040846545706291648e+00 2.055375848890567819e-02
1.342227103189559123e-01 1.276938334692893733e+02 1.098594754128961126e+00 2.177031073297882452e-02
1.370672523827470846e-01 1.304239367566554790e+02 1.159798362461698762e+00 2.306552676306748359e-02
1.399117944465382846e-01 1.331553481296659811e+02 1.224679121260661807e+00 2.444130017806213015e-02
1.427563365103294568e-01 1.358881180513590721e+02 1.293464450228436258e+00 2.589946904868872454e-02
1.456008785741206568e-01 1.386222995604374830e+02 1.366387333662733017e+00 2.744181548397353274e-02
1.484454206379118291e-01 1.413579482279921251e+02 1.443686217050082821e+00 2.907006514505828740e-02
1.512899627017030291e-01 1.440951221155710869e+02 1.525604904667164252e+00 3.078588671294923279e-02
1.541345047654942013e-01 1.468338817344859990e+02 1.612392458062655409e+00 3.259089131641202536e-02
1.569790468292853736e-01 1.495742900062562057e+02 1.704303095301944904e+00 3.448663192589929843e-02
1.598235888930765736e-01 1.523164122241018390e+02 1.801596090865609678e+00 3.647460271910614449e-02
1.626681309568677458e-01 1.550603160154018951e+02 1.904535676100514330e+00 3.855623842349003433e-02
1.655126730206589458e-01 1.578060713050419110e+02 2.013390940129681894e+00 4.073291364085736971e-02
1.683572150844501181e-01 1.605537502795833404e+02 2.128435731133801134e+00 4.300594215890662930e-02
1.712017571482413181e-01 1.633034273521884074e+02 2.249948557923547643e+00 4.537657625442432369e-02
1.740462992120324903e-01 1.660551791282449017e+02 2.378212491727640820e+00 4.784600599264996618e-02
1.768908412758236626e-01 1.688090843716333040e+02 2.513515068127054164e+00 5.041535852716099581e-02
1.797353833396148626e-01 1.715652239715903704e+02 2.656148189070790977e+00 5.308569740447049295e-02
1.825799254034060626e-01 1.743236809101186395e+02 2.806408024913425781e+00 5.585802187738329178e-02
1.854244674671972071e-01 1.770845402299027285e+02 2.964594916419053927e+00 5.873326623101306210e-02
1.882690095309884071e-01 1.798478890026907493e+02 3.131013276680491231e+00 6.171229912522678551e-02
1.911135515947796071e-01 1.826138162981052631e+02 3.305971492906458753e+00 6.479592295714800554e-02
1.939580936585707793e-01 1.853824131528467944e+02 3.489781828033330147e+00 6.798487324722098102e-02
1.968026357223619516e-01 1.881537725402641286e+02 3.682760322121449992e+00 7.127981805220670597e-02
1.996471777861531516e-01 1.909279893402538164e+02 3.885226693499422623e+00 7.468135740835395164e-02
2.024917198499443238e-01 1.937051603094682548e+02 4.097504239622954181e+00 7.819002280785863901e-02
2.053362619137354961e-01 1.964853840518025834e+02 4.319919737617875732e+00 8.180627671159701464e-02
2.081808039775266961e-01 1.992687609891384284e+02 4.552803344479805503e+00 8.553051210098530643e-02
2.110253460413178961e-01 2.020553933323207900e+02 4.796488496905711330e+00 8.936305207168832032e-02
2.138698881051090683e-01 2.048453850523479218e+02 5.051311810735261254e+00 9.330414947176460250e-02
2.167144301689002406e-01 2.076388418517557284e+02 5.317612979982342836e+00 9.735398658670035843e-02
2.195589722326914406e-01 2.104358711361759049e+02 5.595734675439548944e+00 1.015126748736456391e-01
2.224035142964826128e-01 2.132365819860539204e+02 5.886022442840745050e+00 1.057802547470254179e-01
2.252480563602737851e-01 2.160410851285074330e+02 6.188824600569088119e+00 1.101566954175575291e-01
2.280925984240649851e-01 2.188494929093153587e+02 6.504492136899912680e+00 1.146418947865599225e-01
2.309371404878561851e-01 2.216619192650175876e+02 6.833378606770029506e+00 1.192356793972864648e-01
2.337816825516473573e-01 2.244784796951174712e+02 7.175840028066933662e+00 1.239378044448773558e-01
2.366262246154385296e-01 2.272992912343740386e+02 7.532234777433319373e+00 1.287479538463598694e-01
2.394707666792297296e-01 2.301244724251690172e+02 7.902923485584103069e+00 1.336657403719797854e-01
2.423153087430209018e-01 2.329541432899449376e+02 8.288268932134970512e+00 1.386907058389901526e-01
2.451598508068121018e-01 2.357884253036972098e+02 8.688635939943191389e+00 1.438223213688646362e-01
2.480043928706032741e-01 2.386274413665181555e+02 9.104391268962970685e+00 1.490599877087448455e-01
2.508489349343944186e-01 2.414713157761786704e+02 9.535903509619386043e+00 1.544030356177743257e-01
2.536934769981856741e-01 2.443201742007443045e+02 9.983542975706370726e+00 1.598507263188075622e-01
2.565380190619768186e-01 2.471741436512158714e+02 1.044768159681561137e+01 1.654022520158244247e-01
2.593825611257680186e-01 2.500333524541884458e+02 1.092869281030512063e+01 1.710567364772247190e-01
3.357216925313645794e-01 3.288507878803662265e+02 2.631767780012033597e+01 2.184236049818508163e-01
4.120608239369611958e-01 4.116828030525220470e+02 4.641633186370738429e+01 2.657904734864769414e-01
4.883999553425577567e-01 4.990040058560763896e+02 7.738235279160738855e+01 4.370526629700349774e-01
5.647390867481543175e-01 5.925669607409619175e+02 1.332244413696209051e+02 7.370264131038274380e-01
6.410782181537508784e-01 6.954471356658513059e+02 2.049338041736723142e+02 6.632306717713271071e-01
7.174173495593474392e-01 8.065143459583598542e+02 2.652819399713715143e+02 4.347894692504299385e-01
7.937564809649440001e-01 9.231916171296484208e+02 3.170862704172073450e+02 4.528872886888380411e-01
8.700956123705405609e-01 1.045169814529125688e+03 3.779187406537138258e+02 5.417658073120963369e-01
9.464347437761371218e-01 1.173070222115521801e+03 4.530999772583384129e+02 6.306443259353545772e-01
1.022773875181733683e+00 1.307603732714871967e+03 5.418822550536574454e+02 6.870634116061884455e-01
1.099113006587330243e+00 1.449187542367393689e+03 6.407412844390919417e+02 7.087031367803341420e-01
1.175452137992927026e+00 1.597917266188641861e+03 7.478086331120775867e+02 7.303428619544799494e-01
1.251791269398523587e+00 1.753873501667343362e+03 8.634533519050949053e+02 7.519825871286256458e-01
1.328130400804120148e+00 1.917149995825108363e+03 9.880597730016585274e+02 7.736223123027713422e-01
1.404469532209716709e+00 2.087852253505498993e+03 1.122027552620712868e+03 7.952620374769170386e-01
1.480808663615313270e+00 2.266096454092808472e+03 1.265771812947719354e+03 8.169017626510628460e-01
1.557147795020909831e+00 2.452008601461612670e+03 1.419723360708175278e+03 8.385414878252085424e-01
1.633486926426506392e+00 2.645723853207757656e+03 1.584328966586353545e+03 8.601812129993542388e-01
1.709826057832102952e+00 2.847385989751567649e+03 1.760051694274807915e+03 8.818209381734999353e-01
1.786165189237699513e+00 3.057146994058480232e+03 1.947371271090952177e+03 9.034606633476456317e-01
1.862504320643296074e+00 3.275166719944527813e+03 2.146784494304585223e+03 9.251003885217914391e-01
1.938843452048892635e+00 3.501611494237230090e+03 2.357900876174400310e+03 9.390429291644413201e-01
2.015182583454488974e+00 3.736547913063727265e+03 2.563597240135408811e+03 8.159921914119284692e-01
2.091521714860085979e+00 3.978822850229978030e+03 2.746012339682461061e+03 6.929414536594145080e-01
