# density  energy_density  pressure   sound_speed_squared  [All in nuclear units]
2.720000000000000022e-14 2.529924618736292620e-11 1.061056609100270887e-19 3.766610435412189122e-08
1.269999999999999890e-13 1.181251617980081254e-10 4.870113551826584858e-18 6.497781477172163475e-08
6.929999999999999754e-13 6.445728594625782745e-10 1.018299070687946017e-16 3.033770597342807186e-07
6.295000000000000137e-12 5.855111460395753757e-09 5.487150723824490656e-15 1.763710043904196507e-06
1.581000000000000150e-11 1.470523320212576141e-08 2.904239460150760759e-14 3.559434472327477622e-06
3.971999999999999958e-11 3.694456170323160790e-08 1.439340266754906811e-13 6.772854871245677111e-06
9.975999999999999982e-11 9.278976412613005154e-08 6.812143616221268841e-13 1.246890511177539320e-05
2.505999999999999928e-10 2.330928829758143313e-07 3.107749196951638608e-12 2.212095130576091967e-05
6.294000000000000186e-10 5.854398883216247602e-07 1.363250409771533549e-11 3.761981047239428883e-05
1.581000000000000021e-09 1.470619631082054101e-06 5.726014178088476303e-11 6.095350986710739404e-05
3.971999999999999932e-09 3.694861084648016046e-06 2.210019573374265380e-10 8.628023653304385055e-05
5.000000000000000105e-09 4.651201787816927976e-06 3.071485916280120014e-10 9.387863480799757518e-05
9.975999999999999465e-09 9.280587964640925786e-06 8.385361004129998845e-10 1.356922228656245837e-04
1.989999999999999952e-08 1.851419242998081003e-05 2.287763168863418088e-09 1.782101978513718314e-04
3.972999999999999908e-08 3.696699295748789187e-05 6.061583099087538954e-09 2.308134738384234820e-04
7.925999999999999637e-08 7.375765469301719828e-05 1.575347858094044765e-08 2.960532096713864875e-04
1.580999999999999930e-07 1.471491184379128891e-04 3.910429618672550719e-08 3.402859755131850544e-04
1.991000000000000027e-07 1.853209783927820692e-04 5.252045687899177454e-08 3.626488188833278743e-04
3.155999999999999938e-07 2.938002528823880299e-04 9.730770378831954314e-08 4.630767356912104081e-04
5.000999999999999849e-07 4.656344063839075714e-04 1.837494945860225819e-07 5.430301232045120323e-04
6.295999999999999732e-07 5.862651417037388971e-04 2.503103884558263872e-07 5.605192962670089638e-04
9.666999999999999941e-07 9.003386739730535665e-04 4.324450868778576936e-07 5.993081670211623108e-04
1.531999999999999901e-06 1.427170885631398036e-03 7.780217275717420968e-07 7.125938556504039095e-04
2.506999999999999883e-06 2.336134972129507662e-03 1.471005394641589826e-06 8.121876172121876309e-04
3.974000000000000407e-06 3.704315759716615697e-03 2.695705763844323844e-06 9.780674166779417152e-04
4.830000000000000343e-06 4.502887798316278223e-03 3.503988717694660908e-06 1.046253037768318664e-03
6.080999999999999885e-06 5.670217999231269741e-03 4.731126407333307547e-06 1.056224360839501646e-03
7.930000000000000308e-06 7.396012414119570652e-03 6.599662989063778187e-06 1.109203753630785610e-03
9.982000000000000313e-06 9.311815711689977113e-03 8.879881089227186733e-06 1.271216815433141075e-03
1.256999999999999993e-05 1.172874412604260098e-02 1.207676739913533738e-05 1.374195438212825332e-03
1.521999999999999997e-05 1.420427250933824909e-02 1.547541302213394990e-05 1.371610497379100249e-03
1.991000000000000080e-05 1.858690797761085312e-02 2.160710455847765458e-05 1.426578142835871997e-03
2.506999999999999883e-05 2.341050104039446925e-02 2.908031724375689851e-05 1.672007475975408053e-03
2.790999999999999875e-05 2.606604784714952258e-02 3.357009132255487721e-05 1.709425557744154774e-03
3.806999999999999973e-05 3.556967988784798945e-02 4.986781576435106434e-05 1.720407281314112165e-03
5.063000000000000145e-05 4.732434580343149871e-02 7.073400252905581275e-05 1.829889149838781265e-03
6.592000000000000583e-05 6.164112392498975052e-02 9.765037643900635188e-05 1.930242980462695823e-03
8.433000000000000066e-05 7.888776783401378612e-02 1.317235490470395893e-04 2.021055815200022837e-03
1.062000000000000064e-04 9.938561165478684845e-02 1.740088341640037047e-04 2.104789529260958983e-03
1.321000000000000126e-04 1.236720406455826121e-01 2.260189757651373944e-04 2.178291718403657477e-03
1.623999999999999901e-04 1.520974545104751274e-01 2.888169908545388338e-04 2.240170365918073281e-03
1.689999999999999879e-04 1.582907717069566844e-01 3.027354772999506964e-04 2.254509350360745651e-03
1.758999999999999930e-04 1.647661861691531171e-01 3.173785841705756782e-04 2.268169273277113179e-03
1.830000000000000029e-04 1.714298948183871907e-01 3.325196584577469103e-04 2.276170334580628063e-03
1.901999999999999882e-04 1.781880600978280049e-01 3.479577791899843742e-04 2.292561569242367037e-03
1.977000000000000079e-04 1.852284385240466902e-01 3.641242634600037713e-04 2.299943765467868384e-03
2.054000000000000053e-04 1.924572004474696396e-01 3.808304060475003897e-04 2.322187632288155723e-03
2.079000000000000119e-04 1.948043378760714872e-01 3.864137987380476553e-04 2.435429768083530178e-03
2.081999999999999921e-04 1.950859988578999005e-01 3.870314100985603909e-04 1.950065624557156818e-03
2.090999999999999868e-04 1.959309855029948977e-01 3.881261957135444685e-04 6.411875526909013856e-04
2.159999999999999919e-04 2.024093317906446865e-01 3.940874488768042125e-04 1.199166870571831411e-03
2.231000000000000019e-04 2.090756740932291913e-01 4.013938420547467825e-04 9.928616047829054436e-04
2.311000000000000066e-04 2.165873044433437034e-01 4.085241694843774404e-04 9.056166966301716637e-04
2.401000000000000085e-04 2.250381721984245909e-01 4.159700687886608468e-04 8.565463878902855599e-04
2.500000000000000052e-04 2.343344406330727658e-01 4.237602369176299592e-04 8.194318812157330018e-04
2.642999999999999733e-04 2.477629128650125634e-01 4.345596643180389446e-04 7.890063723638815647e-04
3.052999999999999941e-04 2.862671839140227270e-01 4.644058706720978241e-04 7.612775562167708662e-04
3.533000000000000224e-04 3.313503829113090826e-01 4.987577676308450197e-04 7.626578558207241024e-04
4.075999999999999871e-04 3.823564017794535141e-01 5.381334366106255759e-04 7.813048116943254948e-04
4.679999999999999915e-04 4.390986251953180042e-01 5.832692638200615834e-04 8.096035963157804938e-04
5.341000000000000261e-04 5.012024644415256081e-01 6.346556894078133086e-04 8.452514814113673558e-04
6.059000000000000366e-04 5.686690698184251325e-01 6.930641302632923034e-04 8.862253587289389486e-04
7.661000000000000275e-04 7.192254882508629654e-01 8.328184776562496576e-04 9.702780530519144065e-04
1.262000000000000101e-03 1.185459127778160093e+00 1.338484980802662205e-03 1.198863597978450275e-03
1.894999999999999983e-03 1.780909071169781921e+00 2.123481960401060308e-03 1.437771491635827115e-03
2.673000000000000029e-03 2.513147344746868850e+00 3.261860252001994032e-03 1.671524566936786766e-03
3.605999999999999830e-03 3.391736073717691369e+00 4.828136641022434151e-03 1.893900408978071038e-03
4.709999999999999777e-03 4.431905410739045870e+00 6.903512974832482635e-03 2.096551352830673849e-03
7.496000000000000059e-03 7.058993649504918366e+00 1.289742191321638018e-02 2.466596387205546859e-03
1.119999999999999989e-02 1.055540362104863661e+01 2.212077014004794340e-02 2.809304433764861584e-03
1.600000000000000033e-02 1.509117352747679952e+01 3.559566804390756900e-02 3.132325055719984222e-03
2.206999999999999934e-02 2.083310616724802244e+01 5.457322122755020599e-02 3.477840948757840792e-03
2.947999999999999926e-02 2.785007348564149154e+01 8.049103664263126956e-02 3.909302116317729670e-03
4.268000000000000266e-02 4.036707211535221518e+01 1.353887601042819133e-01 4.862066536253286525e-03
6.219999999999999835e-02 5.891246509830522626e+01 2.419691225623893105e-01 6.630786177272363080e-03
7.316999999999999893e-02 6.935151695866235855e+01 3.161896974764099033e-01 7.588671314871411888e-03
7.595999999999999974e-02 7.200836722020332559e+01 3.371250777904805096e-01 8.170805199905812125e-03
7.685877551020407761e-02 7.286441679167032248e+01 3.442046835339727662e-01 8.369363702771748237e-03
7.775755102040816935e-02 7.372055014534831230e+01 3.514546993597988944e-01 8.567278889986146631e-03
7.865632653061224722e-02 7.457676828001240210e+01 3.588746784750405650e-01 8.764695936133905935e-03
7.955510204081632508e-02 7.543307216721366615e+01 3.664642986063791352e-01 8.961760015799940388e-03
8.045387755102040295e-02 7.628946275360937079e+01 3.742233620467163013e-01 9.158616303569146883e-03
8.135265306122449469e-02 7.714594096318880645e+01 3.821517957046173808e-01 9.355409974026439660e-03
8.225142857142857256e-02 7.800250769940220152e+01 3.902496511564294557e-01 9.552286201756713876e-03
8.315020408163265042e-02 7.885916384719651262e+01 3.985171047009450351e-01 9.749390161344880304e-03
8.404897959183672829e-02 7.971591027496405957e+01 4.069544574164924433e-01 9.946867027375842774e-03
8.494775510204082003e-02 8.057274783640870908e+01 4.155621352203525687e-01 1.014486197443450859e-02
8.584653061224489790e-02 8.142967737233269077e+01 4.243406889304106033e-01 1.034352017710577810e-02
8.674530612244897576e-02 8.228669971235072467e+01 4.332907943289662778e-01 1.054298680997456036e-02
8.764408163265305363e-02 8.314381567653254024e+01 4.424132522286338687e-01 1.074340704762575920e-02
8.854285714285714537e-02 8.400102607697918700e+01 4.517089885402768012e-01 1.094492606464428364e-02
8.944163265306122323e-02 8.485833171933596475e+01 4.611790543429283851e-01 1.114768903561502884e-02
9.034040816326530110e-02 8.571573340424558296e+01 4.708246259556635449e-01 1.135184113512290732e-02
9.123918367346939284e-02 8.657323192874349616e+01 4.806470050113885728e-01 1.155752753775282637e-02
9.213795918367347071e-02 8.743082808759962177e+01 4.906476185325293615e-01 1.176489341808968463e-02
9.303673469387754857e-02 8.828852267460834469e+01 5.008280190086051853e-01 1.197408395071839111e-02
9.393551020408162644e-02 8.914631648382885487e+01 5.111898844756781468e-01 1.218524431022384967e-02
9.483428571428570431e-02 9.000421031077985390e+01 5.217350185976795673e-01 1.239851967119096239e-02
9.573306122448979605e-02 9.086220495358867311e+01 5.324653507496194260e-01 1.261405520820464525e-02
9.663183673469387391e-02 9.172030121409849812e+01 5.433829361026881744e-01 1.283199609584979167e-02
9.753061224489795178e-02 9.257849989893543352e+01 5.544899557112709099e-01 1.305248750871130896e-02
9.842938775510204352e-02 9.343680182053668659e+01 5.657887166018933378e-01 1.327567462137411135e-02
9.932816326530612139e-02 9.429520779814201603e+01 5.772816518641267214e-01 1.350170260842309053e-02
1.002269387755101993e-01 9.515371865875032142e+01 5.889713207434863484e-01 1.373071664444315380e-02
1.011257142857142910e-01 9.601233523804256720e+01 6.008604087363549340e-01 1.396286190401922062e-02
1.020244897959183689e-01 9.687105838127303059e+01 6.129517276869734799e-01 1.419828356173618092e-02
1.029232653061224467e-01 9.772988894412945626e+01 6.252482158865446671e-01 1.443712679217894201e-02
1.038220408163265246e-01 9.858882779356491710e+01 6.377529381744927450e-01 1.467953676993241294e-02
1.047208163265306025e-01 9.944787580860064224e+01 6.504690860419333198e-01 1.492565866958149752e-02
1.056195918367346942e-01 1.003070338811035072e+02 6.633999777374074425e-01 1.517563766571110480e-02
1.065183673469387721e-01 1.011663029165363952e+02 6.765490583749352860e-01 1.542961893290613166e-02
1.074171428571428499e-01 1.020256838346854664e+02 6.899199000444532492e-01 1.568774764575148889e-02
1.083159183673469417e-01 1.028851775703637657e+02 7.035162019246937737e-01 1.595016897883207857e-02
1.092146938775510195e-01 1.037447850740915527e+02 7.173417903985758182e-01 1.621702810673281148e-02
1.101134693877550974e-01 1.046045073127564109e+02 7.314006191711752702e-01 1.648847020403858277e-02
1.110122448979591891e-01 1.054643452702518402e+02 7.456967693903440164e-01 1.676464044533430842e-02
1.119110204081632531e-01 1.063242999480968507e+02 7.602344497700507242e-01 1.704568400520488705e-02
1.128097959183673449e-01 1.071843723660359302e+02 7.750179967165239381e-01 1.733174605823522424e-02
1.137085714285714227e-01 1.080445635626218888e+02 7.900518744572643248e-01 1.762297177901023248e-02
1.146073469387755006e-01 1.089048745957798303e+02 8.053406751730186608e-01 1.791950634211480001e-02
1.155061224489795924e-01 1.097653065433563739e+02 8.208891191327862824e-01 1.822149492213385319e-02
1.164048979591836702e-01 1.106258605036509124e+02 8.367020548319462625e-01 1.852908269365227678e-02
1.173036734693877481e-01 1.114865375959332852e+02 8.527844591335913549e-01 1.884241483125499023e-02
1.182024489795918398e-01 1.123473389609453221e+02 8.691414374131514187e-01 1.916163650952689909e-02
1.191012244897959177e-01 1.132082657613886880e+02 8.857782237063975828e-01 1.948689290305289507e-02
1.199999999999999956e-01 1.140693191823997950e+02 9.027001808609185218e-01 1.981832918641789412e-02
1.231551041699387589e-01 1.170930292508259924e+02 9.644490773256818583e-01 2.102452459316236574e-02
1.263102083398775222e-01 1.201183689970354749e+02 1.029946393446294683e+00 2.227432334472393902e-02
1.294653125098162716e-01 1.231453930641023504e+02 1.099330283958334098e+00 2.356832813758517886e-02
1.326204166797550210e-01 1.261741568268565601e+02 1.172741236650914676e+00 2.490718093665048732e-02
1.357755208496937982e-01 1.292047163968113068e+02 1.250322212951410661e+00 2.629156205410174141e-02
1.389306250196325476e-01 1.322371286298809423e+02 1.332218786779296282e+00 2.772218917404849214e-02
1.420857291895712970e-01 1.352714511365317094e+02 1.418579281566625605e+00 2.919981633128946458e-02
1.452408333595100742e-01 1.383077422940513941e+02 1.509554905366129018e+00 3.072523285155972020e-02
1.483959375294488237e-01 1.413460612606679945e+02 1.605299883988769771e+00 3.229926225982267946e-02
1.515510416993875731e-01 1.443864679912772715e+02 1.705971592131168446e+00 3.392276116246897150e-02
1.547061458693263503e-01 1.474290232545688184e+02 1.811730682469912423e+00 3.559661810867927045e-02
1.578612500392650997e-01 1.504737886513684657e+02 1.922741212714736969e+00 3.732175243568620210e-02
1.610163542092038491e-01 1.535208266340315788e+02 2.039170770626077100e+00 3.909911310222104891e-02
1.641714583791425985e-01 1.565702005267483230e+02 2.161190597014746917e+00 4.092967751403958632e-02
1.673265625490813757e-01 1.596219745466310656e+02 2.288975706752742756e+00 4.281445034508742087e-02
1.704816667190201251e-01 1.626762138254753154e+02 2.422705007834458524e+00 4.475446235757405550e-02
1.736367708889589023e-01 1.657329844320953498e+02 2.562561418537164126e+00 4.675076922397871509e-02
1.767918750588976518e-01 1.687923533951486945e+02 2.708731982738437072e+00 4.880445035379730317e-02
1.799469792288364012e-01 1.718543887263726617e+02 2.861407983456636384e+00 5.091660772766230109e-02
1.831020833987751506e-01 1.749191594441670645e+02 3.020785054688325921e+00 5.308836474131471000e-02
1.862571875687139278e-01 1.779867355974649001e+02 3.187063291624119277e+00 5.532086506178318652e-02
1.894122917386526772e-01 1.810571882898382512e+02 3.360447359331596662e+00 5.761527149802297271e-02
1.925673959085914544e-01 1.841305897037972841e+02 3.541146600000987466e+00 5.997276488818417683e-02
1.957225000785302038e-01 1.872070131252421277e+02 3.729375138856071636e+00 6.239454300561688566e-02
1.988776042484689532e-01 1.902865329680347486e+02 3.925351988839571593e+00 6.488181948567267598e-02
2.020327084184077027e-01 1.933692247986640780e+02 4.129301154188893541e+00 6.743582277532994551e-02
2.051878125883464798e-01 1.964551653609793789e+02 4.341451733024814352e+00 7.005779510765125506e-02
2.083429167582852293e-01 1.995444326009727263e+02 4.562038019082367946e+00 7.274899150307349849e-02
2.114980209282240065e-01 2.026371056915953659e+02 4.791299602720043183e+00 7.551067879953501927e-02
2.146531250981627559e-01 2.057332650575951902e+02 5.029481471350220723e+00 7.834413471345506863e-02
2.178082292681015053e-01 2.088329924003663223e+02 5.276834109440952325e+00 8.125064693360201096e-02
2.209633334380402547e-01 2.119363707228057763e+02 5.533613598246338583e+00 8.423151224991168307e-02
2.241184376079790319e-01 2.150434843541722785e+02 5.800081715430305707e+00 8.728803571935205008e-02
2.272735417779177813e-01 2.181544189749485838e+02 6.076506034756237185e+00 9.042152987096420402e-02
2.304286459478565585e-01 2.212692616417081126e+02 6.363160026022972815e+00 9.363331395225132914e-02
2.335837501177953079e-01 2.243881008119908529e+02 6.660323155435851739e+00 9.692471321912936311e-02
2.367388542877340574e-01 2.275110263691929049e+02 6.968280986610211336e+00 1.002970582716952858e-01
2.398939584576728068e-01 2.306381296474842202e+02 7.287325282413530836e+00 1.037516844381130010e-01
2.430490626276115840e-01 2.337695034567568655e+02 7.617754107861783197e+00 1.072899312089571067e-01
2.462041667975503334e-01 2.369052421076242183e+02 7.959871934295110307e+00 1.109131417243946482e-01
2.493592709674890828e-01 2.400454414364824913e+02 8.313989745068008475e+00 1.146226623166196057e-01
2.525143751374278600e-01 2.431901988306507576e+02 8.680425142999480315e+00 1.184198421099825344e-01
2.556694793073666094e-01 2.463396132536092580e+02 9.059502459839416488e+00 1.223060326812833165e-01
2.588245834773053589e-01 2.494937852703573355e+02 9.451552868018627152e+00 1.262825877827045140e-01
2.619796876472441083e-01 2.526528170729102953e+02 9.856914494961301898e+00 1.303508631298693488e-01
2.651347918171829132e-01 2.558168125059631848e+02 1.027593254025066827e+01 1.345122162574979019e-01
2.682898959871216071e-01 2.589858770927429532e+02 1.070895939595066260e+01 1.387680064451123074e-01
2.714450001570604121e-01 2.621601180610822439e+02 1.115635477039919188e+01 1.431195947152035242e-01
2.746001043269991615e-01 2.653396443697370728e+02 1.161848581580084883e+01 1.475683439062082936e-01
3.506286736264481729e-01 3.451772679609848069e+02 4.673550955237946880e+01 6.933162155637435653e-01
4.266572429258971288e-01 4.358440715087551212e+02 9.611000404655241880e+01 4.201903151721665397e-01
5.026858122253461403e-01 5.340119518595686259e+02 1.357194312913551926e+02 3.888524662307222268e-01
5.787143815247951517e-01 6.381365271664964212e+02 1.744975993400670404e+02 3.575146172892778584e-01
6.547429508242441631e-01 7.472746963309205057e+02 2.117433579973575775e+02 3.261767683478334900e-01
7.307715201236930636e-01 8.606299672425222980e+02 2.468914605123959518e+02 2.948389194063891772e-01
8.068000894231421860e-01 9.775190525201988976e+02 2.794841818827247835e+02 2.635010704649447533e-01
8.828286587225910864e-01 1.097348872126359083e+03 3.091510613040165936e+02 2.321632215235004404e-01
9.588572280220402089e-01 1.219600009886753242e+03 3.355937986314764316e+02 2.008253725820560442e-01
1.034885797321489109e+00 1.343814386147241294e+03 3.585746055229581088e+02 1.694875236406117036e-01
1.110914366620938232e+00 1.469585803341506562e+03 3.779069766128361607e+02 1.381496746991673352e-01
1.186942935920387132e+00 1.596552518784843414e+03 3.934482183008913125e+02 1.068118257577230223e-01
1.262971505219836033e+00 1.724391290696209808e+03 4.050932930624423420e+02 7.547397681627870947e-02
1.339000074519285155e+00 1.852812522136267944e+03 4.127696737146467285e+02 4.413612787483428557e-02
1.415028643818734277e+00 1.981566013320943512e+03 4.167893002986530746e+02 1.832642861671532342e-02
1.491057213118183178e+00 2.110489572629766826e+03 4.191180917531288515e+02 1.780067451614937221e-02
1.567085782417632078e+00 2.239530279550007890e+03 4.213811583058556494e+02 1.727492041558342448e-02
1.643114351717081201e+00 2.368679248146424925e+03 4.235782252576295832e+02 1.674916631501747674e-02
1.719142921016530101e+00 2.497928403633407015e+03 4.257090453572793081e+02 1.622341221445152901e-02
1.795171490315979224e+00 2.627270375746404170e+03 4.277733953815873065e+02 1.569765811388557780e-02
1.871200059615428124e+00 2.756698410073270679e+03 4.297710732756882521e+02 1.517190401331963007e-02
1.947228628914877246e+00 2.886206293710723457e+03 4.317018957422964718e+02 1.464614991275367886e-02
2.023257198214325925e+00 3.015788292460469165e+03 4.335656961939470762e+02 1.412039581218773286e-02
2.099285767513774825e+00 3.145439097405833309e+03 4.353623230015270451e+02 1.359464171162178513e-02
