# density  energy_density  pressure   sound_speed_squared  [All in nuclear units]
2.720000000000000022e-14 2.529924618736292620e-11 1.061056609100270887e-19 3.766610435412189122e-08
1.269999999999999890e-13 1.181251617980081254e-10 4.870113551826584858e-18 6.497781477172163475e-08
6.929999999999999754e-13 6.445728594625782745e-10 1.018299070687946017e-16 3.033770597342807186e-07
6.295000000000000137e-12 5.855111460395753757e-09 5.487150723824490656e-15 1.763710043904196507e-06
1.581000000000000150e-11 1.470523320212576141e-08 2.904239460150760759e-14 3.559434472327477622e-06
3.971999999999999958e-11 3.694456170323160790e-08 1.439340266754906811e-13 6.772854871245677111e-06
9.975999999999999982e-11 9.278976412613005154e-08 6.812143616221268841e-13 1.246890511177539320e-05
2.505999999999999928e-10 2.330928829758143313e-07 3.107749196951638608e-12 2.212095130576091967e-05
6.294000000000000186e-10 5.854398883216247602e-07 1.363250409771533549e-11 3.761981047239428883e-05
1.581000000000000021e-09 1.470619631082054101e-06 5.726014178088476303e-11 6.095350986710739404e-05
3.971999999999999932e-09 3.694861084648016046e-06 2.210019573374265380e-10 8.628023653304385055e-05
5.000000000000000105e-09 4.651201787816927976e-06 3.071485916280120014e-10 9.387863480799757518e-05
9.975999999999999465e-09 9.280587964640925786e-06 8.385361004129998845e-10 1.356922228656245837e-04
1.989999999999999952e-08 1.851419242998081003e-05 2.287763168863418088e-09 1.782101978513718314e-04
3.972999999999999908e-08 3.696699295748789187e-05 6.061583099087538954e-09 2.308134738384234820e-04
7.925999999999999637e-08 7.375765469301719828e-05 1.575347858094044765e-08 2.960532096713864875e-04
1.580999999999999930e-07 1.471491184379128891e-04 3.910429618672550719e-08 3.402859755131850544e-04
1.991000000000000027e-07 1.853209783927820692e-04 5.252045687899177454e-08 3.626488188833278743e-04
3.155999999999999938e-07 2.938002528823880299e-04 9.730770378831954314e-08 4.630767356912104081e-04
5.000999999999999849e-07 4.656344063839075714e-04 1.837494945860225819e-07 5.430301232045120323e-04
6.295999999999999732e-07 5.862651417037388971e-04 2.503103884558263872e-07 5.605192962670089638e-04
9.666999999999999941e-07 9.003386739730535665e-04 4.324450868778576936e-07 5.993081670211623108e-04
1.531999999999999901e-06 1.427170885631398036e-03 7.780217275717420968e-07 7.125938556504039095e-04
2.506999999999999883e-06 2.336134972129507662e-03 1.471005394641589826e-06 8.121876172121876309e-04
3.974000000000000407e-06 3.704315759716615697e-03 2.695705763844323844e-06 9.780674166779417152e-04
4.830000000000000343e-06 4.502887798316278223e-03 3.503988717694660908e-06 1.046253037768318664e-03
6.080999999999999885e-06 5.670217999231269741e-03 4.731126407333307547e-06 1.056224360839501646e-03
7.930000000000000308e-06 7.396012414119570652e-03 6.599662989063778187e-06 1.109203753630785610e-03
9.982000000000000313e-06 9.311815711689977113e-03 8.879881089227186733e-06 1.271216815433141075e-03
1.256999999999999993e-05 1.172874412604260098e-02 1.207676739913533738e-05 1.374195438212825332e-03
1.521999999999999997e-05 1.420427250933824909e-02 1.547541302213394990e-05 1.371610497379100249e-03
1.991000000000000080e-05 1.858690797761085312e-02 2.160710455847765458e-05 1.426578142835871997e-03
2.506999999999999883e-05 2.341050104039446925e-02 2.908031724375689851e-05 1.672007475975408053e-03
2.790999999999999875e-05 2.606604784714952258e-02 3.357009132255487721e-05 1.709425557744154774e-03
3.806999999999999973e-05 3.556967988784798945e-02 4.986781576435106434e-05 1.720407281314112165e-03
5.063000000000000145e-05 4.732434580343149871e-02 7.073400252905581275e-05 1.829889149838781265e-03
6.592000000000000583e-05 6.164112392498975052e-02 9.765037643900635188e-05 1.930242980462695823e-03
8.433000000000000066e-05 7.888776783401378612e-02 1.317235490470395893e-04 2.021055815200022837e-03
1.062000000000000064e-04 9.938561165478684845e-02 1.740088341640037047e-04 2.104789529260958983e-03
1.321000000000000126e-04 1.236720406455826121e-01 2.260189757651373944e-04 2.178291718403657477e-03
1.623999999999999901e-04 1.520974545104751274e-01 2.888169908545388338e-04 2.240170365918073281e-03
1.689999999999999879e-04 1.582907717069566844e-01 3.027354772999506964e-04 2.254509350360745651e-03
1.758999999999999930e-04 1.647661861691531171e-01 3.173785841705756782e-04 2.268169273277113179e-03
1.830000000000000029e-04 1.714298948183871907e-01 3.325196584577469103e-04 2.276170334580628063e-03
1.901999999999999882e-04 1.781880600978280049e-01 3.479577791899843742e-04 2.292561569242367037e-03
1.977000000000000079e-04 1.852284385240466902e-01 3.641242634600037713e-04 2.299943765467868384e-03
2.054000000000000053e-04 1.924572004474696396e-01 3.808304060475003897e-04 2.322187632288155723e-03
2.079000000000000119e-04 1.948043378760714872e-01 3.864137987380476553e-04 2.435429768083530178e-03
2.081999999999999921e-04 1.950859988578999005e-01 3.870314100985603909e-04 1.950065624557156818e-03
2.090999999999999868e-04 1.959309855029948977e-01 3.881261957135444685e-04 6.411875526909013856e-04
2.159999999999999919e-04 2.024093317906446865e-01 3.940874488768042125e-04 1.199166870571831411e-03
2.231000000000000019e-04 2.090756740932291913e-01 4.013938420547467825e-04 9.928616047829054436e-04
2.311000000000000066e-04 2.165873044433437034e-01 4.085241694843774404e-04 9.056166966301716637e-04
2.401000000000000085e-04 2.250381721984245909e-01 4.159700687886608468e-04 8.565463878902855599e-04
2.500000000000000052e-04 2.343344406330727658e-01 4.237602369176299592e-04 8.194318812157330018e-04
2.642999999999999733e-04 2.477629128650125634e-01 4.345596643180389446e-04 7.890063723638815647e-04
3.052999999999999941e-04 2.862671839140227270e-01 4.644058706720978241e-04 7.612775562167708662e-04
3.533000000000000224e-04 3.313503829113090826e-01 4.987577676308450197e-04 7.626578558207241024e-04
4.075999999999999871e-04 3.823564017794535141e-01 5.381334366106255759e-04 7.813048116943254948e-04
4.679999999999999915e-04 4.390986251953180042e-01 5.832692638200615834e-04 8.096035963157804938e-04
5.341000000000000261e-04 5.012024644415256081e-01 6.346556894078133086e-04 8.452514814113673558e-04
6.059000000000000366e-04 5.686690698184251325e-01 6.930641302632923034e-04 8.862253587289389486e-04
7.661000000000000275e-04 7.192254882508629654e-01 8.328184776562496576e-04 9.702780530519144065e-04
1.262000000000000101e-03 1.185459127778160093e+00 1.338484980802662205e-03 1.198863597978450275e-03
1.894999999999999983e-03 1.780909071169781921e+00 2.123481960401060308e-03 1.437771491635827115e-03
2.673000000000000029e-03 2.513147344746868850e+00 3.261860252001994032e-03 1.671524566936786766e-03
3.605999999999999830e-03 3.391736073717691369e+00 4.828136641022434151e-03 1.893900408978071038e-03
4.709999999999999777e-03 4.431905410739045870e+00 6.903512974832482635e-03 2.096551352830673849e-03
7.496000000000000059e-03 7.058993649504918366e+00 1.289742191321638018e-02 2.466596387205546859e-03
1.119999999999999989e-02 1.055540362104863661e+01 2.212077014004794340e-02 2.809304433764861584e-03
1.600000000000000033e-02 1.509117352747679952e+01 3.559566804390756900e-02 3.132325055719984222e-03
2.206999999999999934e-02 2.083310616724802244e+01 5.457322122755020599e-02 3.477840948757840792e-03
2.947999999999999926e-02 2.785007348564149154e+01 8.049103664263126956e-02 3.909302116317729670e-03
4.268000000000000266e-02 4.036707211535221518e+01 1.353887601042819133e-01 4.862066536253286525e-03
6.219999999999999835e-02 5.891246509830522626e+01 2.419691225623893105e-01 6.630786177272363080e-03
7.316999999999999893e-02 6.935151695866235855e+01 3.161896974764099033e-01 7.588671314871411888e-03
7.595999999999999974e-02 7.200836722020332559e+01 3.371250777904805096e-01 8.170805199905810390e-03
7.685877551020407761e-02 7.286441676022101888e+01 3.441993015467806338e-01 8.356790922881669748e-03
7.775755102040816935e-02 7.372054993684653823e+01 3.514297103624553498e-01 8.534052567795730876e-03
7.865632653061224722e-02 7.457676754743543768e+01 3.588091401691178572e-01 8.703217018451918016e-03
7.955510204081632508e-02 7.543307029229275429e+01 3.663309611334330529e-01 8.864911158654162349e-03
8.045387755102040295e-02 7.628945878399981950e+01 3.739890778543797367e-01 9.019761872206391584e-03
8.135265306122449469e-02 7.714593355632629823e+01 3.817779295751763668e-01 9.168396042912531699e-03
8.225142857142857256e-02 7.800249507275135841e+01 3.896924904076753959e-01 9.311440554576510403e-03
8.315020408163265042e-02 7.885914373461420723e+01 3.977282695672928470e-01 9.449522291002253674e-03
8.404897959183672829e-02 7.971587988891535304e+01 4.058813116167772628e-01 9.583268135993692691e-03
8.494775510204082003e-02 8.057270383578658368e+01 4.141481967173495371e-01 9.713304973354755165e-03
8.584653061224489790e-02 8.142961583564692774e+01 4.225260408859519701e-01 9.840259686889363602e-03
8.674530612244897576e-02 8.228661611606261772e+01 4.310124962575425100e-01 9.964759160401450919e-03
8.764408163265305363e-02 8.314370487832455581e+01 4.396057513515476689e-01 1.008743027769493789e-02
8.854285714285714537e-02 8.400088230375918386e+01 4.483045313417621247e-01 1.020889992257376436e-02
8.944163265306122323e-02 8.485814855978581761e+01 4.571080983291389566e-01 1.032979497884184417e-02
9.034040816326530110e-02 8.571550380573289374e+01 4.660162516170661684e-01 1.045074233030311370e-02
9.123918367346939284e-02 8.657294819842587685e+01 4.750293279888600506e-01 1.057236886076149546e-02
9.213795918367347071e-02 8.743048189755739941e+01 4.841482019873409315e-01 1.069530145402091889e-02
9.303673469387754857e-02 8.828810507085091785e+01 4.933742861964784954e-01 1.082016699388531344e-02
9.393551020408162644e-02 8.914581789902710796e+01 5.027095315252055885e-01 1.094759236415860509e-02
9.483428571428570431e-02 9.000362058058328785e+01 5.121564274936127870e-01 1.107820444864471635e-02
9.573306122448979605e-02 9.086151333639409700e+01 5.217180025218332018e-01 1.121263013114758705e-02
9.663183673469387391e-02 9.171949641414227017e+01 5.313978242220248616e-01 1.135149629547113452e-02
9.753061224489795178e-02 9.257757009258708081e+01 5.411999996939489410e-01 1.149542982541928646e-02
9.842938775510204352e-02 9.343573468567863927e+01 5.511291758247235384e-01 1.164505760479597751e-02
9.932816326530612139e-02 9.429399054652380130e+01 5.611905395934160268e-01 1.180100651740512846e-02
1.002269387755101993e-01 9.515233807121235543e+01 5.713898183812130549e-01 1.196390344705066874e-02
1.011257142857142910e-01 9.601077770250788035e+01 5.817332802879737752e-01 1.213437527753652954e-02
1.020244897959183689e-01 9.686930993341070462e+01 5.922277344560449297e-01 1.231304889266663337e-02
1.029232653061224467e-01 9.772793531059787142e+01 6.028805314022781525e-01 1.250055117624490793e-02
1.038220408163265246e-01 9.858665443774634696e+01 6.136995633592482458e-01 1.269750901207528440e-02
1.047208163265306025e-01 9.944546797874367883e+01 6.246932646267314704e-01 1.290454928396168530e-02
1.056195918367346942e-01 1.003043766607915757e+02 6.358706119345557406e-01 1.312229887570804873e-02
1.065183673469387721e-01 1.011633812774068701e+02 6.472411248179846810e-01 1.335138467111828854e-02
1.074171428571428499e-01 1.020224826913252656e+02 6.588148660068505746e-01 1.359243355399633937e-02
1.083159183673469417e-01 1.028816818373096567e+02 6.706024418296924194e-01 1.384607240814612894e-02
1.092146938775510195e-01 1.037409797248701011e+02 6.826150026342020505e-01 1.411292811737158495e-02
1.101134693877550974e-01 1.046003774408969065e+02 6.948642432253261392e-01 1.439362756547663165e-02
1.110122448979591891e-01 1.054598761522117201e+02 7.073624033224057417e-01 1.468879763626520368e-02
1.119110204081632531e-01 1.063194771080399050e+02 7.201222680367774798e-01 1.499906521354121662e-02
1.128097959183673449e-01 1.071791816424067889e+02 7.331571683713001830e-01 1.532505718110861205e-02
1.137085714285714227e-01 1.080389911764624458e+02 7.464809817432938033e-01 1.566740042277130207e-02
1.146073469387755006e-01 1.088989072207367883e+02 7.601081325324282600e-01 1.602672182233322654e-02
1.155061224489795924e-01 1.097589313773278263e+02 7.740535926551155299e-01 1.640364826359831663e-02
1.164048979591836702e-01 1.106190653420276817e+02 7.883328821669982611e-01 1.679880663037048444e-02
1.173036734693877481e-01 1.114793109063860612e+02 8.029620698951582813e-01 1.721282380645366636e-02
1.182024489795918398e-01 1.123396699597168009e+02 8.179577741016895720e-01 1.764632667565179183e-02
1.191012244897959177e-01 1.132001444910478511e+02 8.333371631803149215e-01 1.809994212176878337e-02
1.199999999999999956e-01 1.140607365910178430e+02 8.491179563877505609e-01 1.857429702860857387e-02
1.209415124199063607e-01 1.149623784730608946e+02 8.660981048625492340e-01 1.909061847237216933e-02
1.218830248398127258e-01 1.158641543741361204e+02 8.835497158767309234e-01 1.961432945002325456e-02
1.228245372597190910e-01 1.167660669273790717e+02 9.014796545743889444e-01 2.014544927202961688e-02
1.237660496796254561e-01 1.176681187782764653e+02 9.198948109709672583e-01 2.068399724981499072e-02
1.247075620995318213e-01 1.185703125845740686e+02 9.388021001068418414e-01 2.122999269575033890e-02
1.256490745194381864e-01 1.194726510161889195e+02 9.582084622021292963e-01 2.178345492308730175e-02
1.265905869393445515e-01 1.203751367551244869e+02 9.781208628126770721e-01 2.234440324583411921e-02
1.275320993592509167e-01 1.212777724953902236e+02 9.985462929871870008e-01 2.291285697857672193e-02
1.284736117791572818e-01 1.221805609429244299e+02 1.019491769425430627e+00 2.348883543624793319e-02
1.294151241990636469e-01 1.230835048155207119e+02 1.040964334637513256e+00 2.407235793384408795e-02
1.303566366189700121e-01 1.239866068427572827e+02 1.062971057104144856e+00 2.466344378609272928e-02
1.312981490388763772e-01 1.248898697659299586e+02 1.085519031437880866e+00 2.526211230707157973e-02
1.322396614587827424e-01 1.257932963379879396e+02 1.108615378545293018e+00 2.586838280978180291e-02
1.331811738786890797e-01 1.266968893234726323e+02 1.132267245790033572e+00 2.648227460567488187e-02
1.341226862985954449e-01 1.276006514984599534e+02 1.156481807156763519e+00 2.710380700413674016e-02
1.350641987185018100e-01 1.285045856505040831e+02 1.181266263415897688e+00 2.773299931192815121e-02
1.360057111384081752e-01 1.294086945785848570e+02 1.206627842289150765e+00 2.836987083258595693e-02
1.369472235583145403e-01 1.303129810930584824e+02 1.232573798615840488e+00 2.901444086578251758e-02
1.378887359782209054e-01 1.312174480156084826e+02 1.259111414519922922e+00 2.966672870664748343e-02
1.388302483981272706e-01 1.321220981792018563e+02 1.286247999577729617e+00 3.032675364505186058e-02
1.397717608180336357e-01 1.330269344280456210e+02 1.313990890986377558e+00 3.099453496485559539e-02
1.407132732379400009e-01 1.339319596175460276e+02 1.342347453732827045e+00 3.167009194312018355e-02
1.416547856578463660e-01 1.348371766142709021e+02 1.371325080763558857e+00 3.235344384928682399e-02
1.425962980777527311e-01 1.357425882959130661e+02 1.400931193154846044e+00 3.304460994432156795e-02
1.435378104976590963e-01 1.366481975512565441e+02 1.431173240283597714e+00 3.374360947982831677e-02
1.444793229175654614e-01 1.375540072801441625e+02 1.462058699998749489e+00 3.445046169713054246e-02
1.454208353374718266e-01 1.384600203934475076e+02 1.493595078793178210e+00 3.516518582632276874e-02
1.463623477573781917e-01 1.393662398130391864e+02 1.525789911976119795e+00 3.588780108529301960e-02
1.473038601772845568e-01 1.402726684717658259e+02 1.558650763846069154e+00 3.661832667871642993e-02
1.482453725971909220e-01 1.411793093134236585e+02 1.592185227864141517e+00 3.735678179702139889e-02
1.491868850170972871e-01 1.420861652927360694e+02 1.626400926827876070e+00 3.810318561532940324e-02
1.501283974370036522e-01 1.429932393753317967e+02 1.661305513045462368e+00 3.885755729236816530e-02
1.510699098569100174e-01 1.439005345377257754e+02 1.696906668510372862e+00 3.961991596936043775e-02
1.520114222768163825e-01 1.448080537673010895e+02 1.733212105076381793e+00 4.039028076888807189e-02
1.529529346967227477e-01 1.457158000622921179e+02 1.770229564632957331e+00 4.116867079373243837e-02
1.538944471166290850e-01 1.466237764317702954e+02 1.807966819281004778e+00 4.195510512569235184e-02
1.548359595365354502e-01 1.475319858956301005e+02 1.846431671508956818e+00 4.274960282437958309e-02
1.557774719564418153e-01 1.484404314845767772e+02 1.885631954369175967e+00 4.355218292599296465e-02
1.567189843763481805e-01 1.493491162401161318e+02 1.925575531654678763e+00 4.436286444207186014e-02
1.576604967962545456e-01 1.502580432145444718e+02 1.966270298076149281e+00 4.518166635822968430e-02
1.586020092161609107e-01 1.511672154709408176e+02 2.007724179439238199e+00 4.600860763286773736e-02
1.595435216360672759e-01 1.520766360831598831e+02 2.049945132822131200e+00 4.684370719587035298e-02
1.604850340559736410e-01 1.529863081358265902e+02 2.092941146753374948e+00 4.768698394728223405e-02
1.614265464758800062e-01 1.538962347243310660e+02 2.136720241389949759e+00 4.853845675596771964e-02
1.623680588957863713e-01 1.548064189548256877e+02 2.181290468695576745e+00 4.939814445825355810e-02
1.633095713156927364e-01 1.557168639442226379e+02 2.226659912619249226e+00 5.026606585655515880e-02
1.642510837355991016e-01 1.566275728201927677e+02 2.272836689273977306e+00 5.114223971798709245e-02
1.651925961555054667e-01 1.575385487211652844e+02 2.319828947115736728e+00 5.202668477295850635e-02
1.661341085754118319e-01 1.584497947963291438e+02 2.367644867122611352e+00 5.291941971375392628e-02
2.443762696248932276e-01 2.357806109446485436e+02 1.061781595801253530e+01 1.583519155069188222e-01
3.226184306743746233e-01 3.170315018514550616e+02 2.789713876600230691e+01 2.637844113000837321e-01
4.008605917238560190e-01 4.035999868485928346e+02 5.547199082150612526e+01 3.692169070932486141e-01
4.791027527733374147e-01 4.966056233342183646e+02 9.494049424478947685e+01 4.746494028864134962e-01
5.573449138228188104e-01 5.970835673172555289e+02 1.482135975104689862e+02 5.800818986795783783e-01
6.355870748723002617e-01 7.060661967019553913e+02 2.175302644403150225e+02 6.855143944727433158e-01
7.138292359217814909e-01 8.246363737105858718e+02 3.062813417164551311e+02 8.031810835292338968e-01
7.920713969712629421e-01 9.531127816700939093e+02 3.729268320090750422e+02 2.575004345122750005e-01
8.703135580207443933e-01 1.085673490910822238e+03 4.054136849535258875e+02 2.330774270059796927e-01
9.485557190702258445e-01 1.221043750081071266e+03 4.352893032470475987e+02 2.086544194996843848e-01
1.026797880119707074e+00 1.358765972254589315e+03 4.623255226336326018e+02 1.842314119933891603e-01
1.105040041169188525e+00 1.498436730943418070e+03 4.863372477179336784e+02 1.598084044870938802e-01
1.183282202218669976e+00 1.639698035796407567e+03 5.071758116999299091e+02 1.353853969807986002e-01
1.261524363268151205e+00 1.782303166448545653e+03 5.273075116724238569e+02 1.469103903163314351e-01
1.339766524317632657e+00 1.926270411052189957e+03 5.515626803374379961e+02 1.898063372419480088e-01
1.418008685367114108e+00 2.071837413257844219e+03 5.823353442119682768e+02 2.327022841675646103e-01
1.496250846416595559e+00 2.219281236865956998e+03 6.198331592591678145e+02 2.755982310931812118e-01
1.574493007466077010e+00 2.368861560178168929e+03 6.642943253096209446e+02 3.184941780187977578e-01
1.652735168515558239e+00 2.520824754798210051e+03 7.159859803933720741e+02 3.613901249444142483e-01
1.730977329565039691e+00 2.675407126764046552e+03 7.752031520013198360e+02 4.042860718700308498e-01
1.809219490614521142e+00 2.832850375484993492e+03 8.433282231330898639e+02 4.603874577448225369e-01
1.887461651664002371e+00 2.993461529892516410e+03 9.224818826186167371e+02 5.243284458853589847e-01
1.965703812713483822e+00 3.157595857522908318e+03 1.013877100462200701e+03 5.882694340258957100e-01
2.043945973762965274e+00 3.325613121584471628e+03 1.118188445661820879e+03 6.522104221664323243e-01
