# density  energy_density  pressure   sound_speed_squared  [All in nuclear units]
2.720000000000000022e-14 2.529924618736292620e-11 1.061056609100270887e-19 3.766610435412189122e-08
1.269999999999999890e-13 1.181251617980081254e-10 4.870113551826584858e-18 6.497781477172163475e-08
6.929999999999999754e-13 6.445728594625782745e-10 1.018299070687946017e-16 3.033770597342807186e-07
6.295000000000000137e-12 5.855111460395753757e-09 5.487150723824490656e-15 1.763710043904196507e-06
1.581000000000000150e-11 1.470523320212576141e-08 2.904239460150760759e-14 3.559434472327477622e-06
3.971999999999999958e-11 3.694456170323160790e-08 1.439340266754906811e-13 6.772854871245677111e-06
9.975999999999999982e-11 9.278976412613005154e-08 6.812143616221268841e-13 1.246890511177539320e-05
2.505999999999999928e-10 2.330928829758143313e-07 3.107749196951638608e-12 2.212095130576091967e-05
6.294000000000000186e-10 5.854398883216247602e-07 1.363250409771533549e-11 3.761981047239428883e-05
1.581000000000000021e-09 1.470619631082054101e-06 5.726014178088476303e-11 6.095350986710739404e-05
3.971999999999999932e-09 3.694861084648016046e-06 2.210019573374265380e-10 8.628023653304385055e-05
5.000000000000000105e-09 4.651201787816927976e-06 3.071485916280120014e-10 9.387863480799757518e-05
9.975999999999999465e-09 9.280587964640925786e-06 8.385361004129998845e-10 1.356922228656245837e-04
1.989999999999999952e-08 1.851419242998081003e-05 2.287763168863418088e-09 1.782101978513718314e-04
3.972999999999999908e-08 3.696699295748789187e-05 6.061583099087538954e-09 2.308134738384234820e-04
7.925999999999999637e-08 7.375765469301719828e-05 1.575347858094044765e-08 2.960532096713864875e-04
1.580999999999999930e-07 1.471491184379128891e-04 3.910429618672550719e-08 3.402859755131850544e-04
1.991000000000000027e-07 1.853209783927820692e-04 5.252045687899177454e-08 3.626488188833278743e-04
3.155999999999999938e-07 2.938002528823880299e-04 9.730770378831954314e-08 4.630767356912104081e-04
5.000999999999999849e-07 4.656344063839075714e-04 1.837494945860225819e-07 5.430301232045120323e-04
6.295999999999999732e-07 5.862651417037388971e-04 2.503103884558263872e-07 5.605192962670089638e-04
9.666999999999999941e-07 9.003386739730535665e-04 4.324450868778576936e-07 5.993081670211623108e-04
1.531999999999999901e-06 1.427170885631398036e-03 7.780217275717420968e-07 7.125938556504039095e-04
2.506999999999999883e-06 2.336134972129507662e-03 1.471005394641589826e-06 8.121876172121876309e-04
3.974000000000000407e-06 3.704315759716615697e-03 2.695705763844323844e-06 9.780674166779417152e-04
4.830000000000000343e-06 4.502887798316278223e-03 3.503988717694660908e-06 1.046253037768318664e-03
6.080999999999999885e-06 5.670217999231269741e-03 4.731126407333307547e-06 1.056224360839501646e-03
7.930000000000000308e-06 7.396012414119570652e-03 6.599662989063778187e-06 1.109203753630785610e-03
9.982000000000000313e-06 9.311815711689977113e-03 8.879881089227186733e-06 1.271216815433141075e-03
1.256999999999999993e-05 1.172874412604260098e-02 1.207676739913533738e-05 1.374195438212825332e-03
1.521999999999999997e-05 1.420427250933824909e-02 1.547541302213394990e-05 1.371610497379100249e-03
1.991000000000000080e-05 1.858690797761085312e-02 2.160710455847765458e-05 1.426578142835871997e-03
2.506999999999999883e-05 2.341050104039446925e-02 2.908031724375689851e-05 1.672007475975408053e-03
2.790999999999999875e-05 2.606604784714952258e-02 3.357009132255487721e-05 1.709425557744154774e-03
3.806999999999999973e-05 3.556967988784798945e-02 4.986781576435106434e-05 1.720407281314112165e-03
5.063000000000000145e-05 4.732434580343149871e-02 7.073400252905581275e-05 1.829889149838781265e-03
6.592000000000000583e-05 6.164112392498975052e-02 9.765037643900635188e-05 1.930242980462695823e-03
8.433000000000000066e-05 7.888776783401378612e-02 1.317235490470395893e-04 2.021055815200022837e-03
1.062000000000000064e-04 9.938561165478684845e-02 1.740088341640037047e-04 2.104789529260958983e-03
1.321000000000000126e-04 1.236720406455826121e-01 2.260189757651373944e-04 2.178291718403657477e-03
1.623999999999999901e-04 1.520974545104751274e-01 2.888169908545388338e-04 2.240170365918073281e-03
1.689999999999999879e-04 1.582907717069566844e-01 3.027354772999506964e-04 2.254509350360745651e-03
1.758999999999999930e-04 1.647661861691531171e-01 3.173785841705756782e-04 2.268169273277113179e-03
1.830000000000000029e-04 1.714298948183871907e-01 3.325196584577469103e-04 2.276170334580628063e-03
1.901999999999999882e-04 1.781880600978280049e-01 3.479577791899843742e-04 2.292561569242367037e-03
1.977000000000000079e-04 1.852284385240466902e-01 3.641242634600037713e-04 2.299943765467868384e-03
2.054000000000000053e-04 1.924572004474696396e-01 3.808304060475003897e-04 2.322187632288155723e-03
2.079000000000000119e-04 1.948043378760714872e-01 3.864137987380476553e-04 2.435429768083530178e-03
2.081999999999999921e-04 1.950859988578999005e-01 3.870314100985603909e-04 1.950065624557156818e-03
2.090999999999999868e-04 1.959309855029948977e-01 3.881261957135444685e-04 6.411875526909013856e-04
2.159999999999999919e-04 2.024093317906446865e-01 3.940874488768042125e-04 1.199166870571831411e-03
2.231000000000000019e-04 2.090756740932291913e-01 4.013938420547467825e-04 9.928616047829054436e-04
2.311000000000000066e-04 2.165873044433437034e-01 4.085241694843774404e-04 9.056166966301716637e-04
2.401000000000000085e-04 2.250381721984245909e-01 4.159700687886608468e-04 8.565463878902855599e-04
2.500000000000000052e-04 2.343344406330727658e-01 4.237602369176299592e-04 8.194318812157330018e-04
2.642999999999999733e-04 2.477629128650125634e-01 4.345596643180389446e-04 7.890063723638815647e-04
3.052999999999999941e-04 2.862671839140227270e-01 4.644058706720978241e-04 7.612775562167708662e-04
3.533000000000000224e-04 3.313503829113090826e-01 4.987577676308450197e-04 7.626578558207241024e-04
4.075999999999999871e-04 3.823564017794535141e-01 5.381334366106255759e-04 7.813048116943254948e-04
4.679999999999999915e-04 4.390986251953180042e-01 5.832692638200615834e-04 8.096035963157804938e-04
5.341000000000000261e-04 5.012024644415256081e-01 6.346556894078133086e-04 8.452514814113673558e-04
6.059000000000000366e-04 5.686690698184251325e-01 6.930641302632923034e-04 8.862253587289389486e-04
7.661000000000000275e-04 7.192254882508629654e-01 8.328184776562496576e-04 9.702780530519144065e-04
1.262000000000000101e-03 1.185459127778160093e+00 1.338484980802662205e-03 1.198863597978450275e-03
1.894999999999999983e-03 1.780909071169781921e+00 2.123481960401060308e-03 1.437771491635827115e-03
2.673000000000000029e-03 2.513147344746868850e+00 3.261860252001994032e-03 1.671524566936786766e-03
3.605999999999999830e-03 3.391736073717691369e+00 4.828136641022434151e-03 1.893900408978071038e-03
4.709999999999999777e-03 4.431905410739045870e+00 6.903512974832482635e-03 2.096551352830673849e-03
7.496000000000000059e-03 7.058993649504918366e+00 1.289742191321638018e-02 2.466596387205546859e-03
1.119999999999999989e-02 1.055540362104863661e+01 2.212077014004794340e-02 2.809304433764861584e-03
1.600000000000000033e-02 1.509117352747679952e+01 3.559566804390756900e-02 3.132325055719984222e-03
2.206999999999999934e-02 2.083310616724802244e+01 5.457322122755020599e-02 3.477840948757840792e-03
2.947999999999999926e-02 2.785007348564149154e+01 8.049103664263126956e-02 3.909302116317729670e-03
4.268000000000000266e-02 4.036707211535221518e+01 1.353887601042819133e-01 4.862066536253286525e-03
6.219999999999999835e-02 5.891246509830522626e+01 2.419691225623893105e-01 6.630786177272363080e-03
7.316999999999999893e-02 6.935151695866235855e+01 3.161896974764099033e-01 7.588671314871411888e-03
7.595999999999999974e-02 7.200836722020332559e+01 3.371250777904805096e-01 8.170805199905812125e-03
7.685877551020407761e-02 7.286441677447591303e+01 3.442017410027357061e-01 8.362489699731207732e-03
7.775755102040816935e-02 7.372055003082270730e+01 3.514409451078329694e-01 8.548898300943840248e-03
7.865632653061224722e-02 7.457676787519184813e+01 3.588382834745550976e-01 8.730197742719611811e-03
7.955510204081632508e-02 7.543307112373125278e+01 3.663894908069805778e-01 8.906554764234445379e-03
8.045387755102040295e-02 7.628946052675117073e+01 3.740904431614955339e-01 9.078136104664260436e-03
8.135265306122449469e-02 7.714593677251059489e+01 3.819371579702963149e-01 9.245108503184967796e-03
8.225142857142857256e-02 7.800250049083599890e+01 3.899257940707957504e-01 9.407638698972474803e-03
8.315020408163265042e-02 7.885915225658260397e+01 3.980526517403946141e-01 9.565893431202707881e-03
8.404897959183672829e-02 7.971589259294627539e+01 4.063141727361155309e-01 9.720039439051574373e-03
8.494775510204082003e-02 8.057272197463407792e+01 4.147069403386398623e-01 9.870243461694992032e-03
8.584653061224489790e-02 8.142964083090134864e+01 4.232276794003199116e-01 1.001667223830887514e-02
8.674530612244897576e-02 8.228664954846190938e+01 4.318732563967754845e-01 1.015949250806914145e-02
8.764408163265305363e-02 8.314374847427824022e+01 4.406406794817098183e-01 1.029887101015170003e-02
8.854285714285714537e-02 8.400093791823778133e+01 4.495270985446140344e-01 1.043497448373247039e-02
8.944163265306122323e-02 8.485821815572136018e+01 4.585298052710514161e-01 1.056796966798736505e-02
9.034040816326530110e-02 8.571558943006854747e+01 4.676462332052427340e-01 1.069802330209229831e-02
9.123918367346939284e-02 8.657305195494589611e+01 4.768739578146917735e-01 1.082530212522318964e-02
9.213795918367347071e-02 8.743060591662229797e+01 4.862106965566168060e-01 1.094997287655594641e-02
9.303673469387754857e-02 8.828825147615647495e+01 4.956543089459734541e-01 1.107220229526649155e-02
9.393551020408162644e-02 8.914598877150032763e+01 5.052027966248706647e-01 1.119215712053073415e-02
9.483428571428570431e-02 9.000381791952231936e+01 5.148543034332038193e-01 1.131000409152458849e-02
9.573306122448979605e-02 9.086173901795547181e+01 5.246071154803435554e-01 1.142590994742397753e-02
9.663183673469387391e-02 9.171975214727216041e+01 5.344596612177342498e-01 1.154004142740480687e-02
9.753061224489795178e-02 9.257785737249001556e+01 5.444105115122751526e-01 1.165256527064299774e-02
9.842938775510204352e-02 9.343605474491243967e+01 5.544583797203652686e-01 1.176364821631446095e-02
9.932816326530612139e-02 9.429434430380533172e+01 5.646021217625106781e-01 1.187345700359511251e-02
1.002269387755101993e-01 9.515272607801468041e+01 5.748407361984061437e-01 1.198215837166086845e-02
1.011257142857142910e-01 9.601120008752631918e+01 5.851733643024098486e-01 1.208991905968764130e-02
1.020244897959183689e-01 9.686976634497065675e+01 5.955992901393459826e-01 1.219690580685134709e-02
1.029232653061224467e-01 9.772842485707586491e+01 6.061179406405801107e-01 1.230328535232790184e-02
1.038220408163265246e-01 9.858717562607034779e+01 6.167288856803176955e-01 1.240922443529321982e-02
1.047208163265306025e-01 9.944601865103723526e+01 6.274318381520911370e-01 1.251488979492321532e-02
1.056195918367346942e-01 1.003049539292232879e+02 6.382266540454061277e-01 1.262044817039380262e-02
1.065183673469387721e-01 1.011639814573041463e+02 6.491133325225273421e-01 1.272606630088089948e-02
1.074171428571428499e-01 1.020231012326069049e+02 6.600920159953929112e-01 1.283191092556041496e-02
1.083159183673469417e-01 1.028823132542927681e+02 6.711629902026513550e-01 1.293814878360827203e-02
1.092146938775510195e-01 1.037416175245013221e+02 6.823266842868245252e-01 1.304494661420037629e-02
1.101134693877550974e-01 1.046010140494570777e+02 6.935836708716082155e-01 1.315247115651265244e-02
1.110122448979591891e-01 1.054605028405413520e+02 7.049346661393223190e-01 1.326088914972100782e-02
1.119110204081632531e-01 1.063200839153293344e+02 7.163805299085351797e-01 1.337036733300136018e-02
1.128097959183673449e-01 1.071797572985948506e+02 7.279222657118922246e-01 1.348107244552962380e-02
1.137085714285714227e-01 1.080395230232838344e+02 7.395610208741754121e-01 1.359317122648171644e-02
1.146073469387755006e-01 1.088993811314573179e+02 7.512980865906401240e-01 1.370683041503354543e-02
1.155061224489795924e-01 1.097593316752054022e+02 7.631348980056675835e-01 1.382221675036103894e-02
1.164048979591836702e-01 1.106193747175338871e+02 7.750730342917824256e-01 1.393949697164009738e-02
1.173036734693877481e-01 1.114795103332236579e+02 7.871142187290901537e-01 1.405883781804664195e-02
1.182024489795918398e-01 1.123397386096646784e+02 7.992603187851891056e-01 1.418040602875658869e-02
1.191012244897959177e-01 1.132000596476647729e+02 8.115133461956184346e-01 1.430436834294585013e-02
1.199999999999999956e-01 1.140604735622348755e+02 8.238754570449101644e-01 1.443089149979034230e-02
1.222096507160140566e-01 1.161762083976490629e+02 8.547483465415415260e-01 1.475315881594111908e-02
1.244193014320281176e-01 1.182925078142306603e+02 8.863275005899116099e-01 1.509055607968877617e-02
1.266289521480421787e-01 1.204093746214765446e+02 9.186461356786799204e-01 1.544381358911244527e-02
1.288386028640562397e-01 1.225268121243392301e+02 9.517390623306488662e-01 1.581367168791848049e-02
1.310482535800702730e-01 1.246448241252732743e+02 9.856427087766154171e-01 1.620088045098883739e-02
1.332579042960843341e-01 1.267634149265407757e+02 1.020395144102218987e+00 1.660619936419379175e-02
1.354675550120983951e-01 1.288825893327410768e+02 1.056036100864332417e+00 1.703039699952667296e-02
1.376772057281124562e-01 1.310023526535416067e+02 1.092606997175943562e+00 1.747425068653425673e-02
1.398868564441265172e-01 1.331227107065832342e+02 1.130150958260673244e+00 1.793854618094227471e-02
1.420965071601405783e-01 1.352436698205376899e+02 1.168712837480149203e+00 1.842407733131077099e-02
1.443061578761546393e-01 1.373652368382981876e+02 1.208339236839377939e+00 1.893164574449720736e-02
1.465158085921686726e-01 1.394874191202853240e+02 1.249078526977071224e+00 1.946206045065648413e-02
1.487254593081827336e-01 1.416102245478496400e+02 1.290980866649592551e+00 2.001613756846417139e-02
1.509351100241967947e-01 1.437336615267590503e+02 1.334098221718798438e+00 2.059469997121224707e-02
1.531447607402108557e-01 1.458577389907561610e+02 1.378484383655604439e+00 2.119857695439611792e-02
1.553544114562249168e-01 1.479824664051727154e+02 1.424194987572563020e+00 2.182860390538484893e-02
1.575640621722389778e-01 1.501078537705942040e+02 1.471287529800161753e+00 2.248562197574478783e-02
1.597737128882530389e-01 1.522339116265585233e+02 1.519821385022917415e+00 2.317047775676905549e-02
1.619833636042670721e-01 1.543606510552879172e+02 1.569857822992662744e+00 2.388402295875123593e-02
1.641930143202811609e-01 1.564880836854395909e+02 1.621460024837726444e+00 2.462711409453091291e-02
1.664026650362951942e-01 1.586162216958726674e+02 1.674693098987950712e+00 2.540061216783087022e-02
1.686123157523092553e-01 1.607450778194235568e+02 1.729624096736787076e+00 2.620538236690198378e-02
1.708219664683233163e-01 1.628746653466855605e+02 1.786322027462886375e+00 2.704229376398802412e-02
1.730316171843373774e-01 1.650049981297872250e+02 1.844857873534889503e+00 2.791221902112472203e-02
1.752412679003514384e-01 1.671360905861661763e+02 1.905304604924315415e+00 2.881603410278860480e-02
1.774509186163654995e-01 1.692679577023355648e+02 1.967737193552695274e+00 2.975461799591616607e-02
1.796605693323795605e-01 1.714006150376390281e+02 2.032232627400338831e+00 3.072885243781958708e-02
1.818702200483935938e-01 1.735340787279944550e+02 2.098869924405375453e+00 3.173962165253420981e-02
1.840798707644076826e-01 1.756683654896226585e+02 2.167730146182992090e+00 3.278781209614092113e-02
1.862895214804217159e-01 1.778034926227608139e+02 2.238896411596063007e+00 3.387431221161796985e-02
1.884991721964357769e-01 1.799394780153596685e+02 2.312453910209733898e+00 3.500001219378895412e-02
1.907088229124498380e-01 1.820763401467659435e+02 2.388489915663800645e+00 3.616580376494504812e-02
1.929184736284638990e-01 1.842140980913862904e+02 2.467093798998174936e+00 3.737257996173462549e-02
1.951281243444779601e-01 1.863527715223384860e+02 2.548357041968094983e+00 3.862123493392642659e-02
1.973377750604919934e-01 1.884923807150861137e+02 2.632373250387208596e+00 3.991266375566788344e-02
1.995474257765060822e-01 1.906329465510611954e+02 2.719238167538153839e+00 4.124776224987468376e-02
2.017570764925201154e-01 1.927744905212750837e+02 2.809049687691763886e+00 4.262742682640295599e-02
2.039667272085341765e-01 1.949170347299201467e+02 2.901907869777663684e+00 4.405255433467059056e-02
2.061763779245482375e-01 1.970606018979644887e+02 2.997914951250557181e+00 4.552404193140919403e-02
2.083860286405622986e-01 1.992052153667414416e+02 3.097175362198259840e+00 4.704278696424176592e-02
2.105956793565763596e-01 2.013508991015397953e+02 3.199795739739187628e+00 4.860968687179650222e-02
2.128053300725904207e-01 2.034976776951948239e+02 3.305884942758803291e+00 5.022563910107820384e-02
2.150149807886044817e-01 2.056455763716841147e+02 3.415554067036325137e+00 5.189154104283251467e-02
2.172246315046185150e-01 2.077946209897363019e+02 3.528916460814858436e+00 5.360828998564649839e-02
2.194342822206326038e-01 2.099448380464503430e+02 3.646087740870038285e+00 5.537678308954087358e-02
2.216439329366466371e-01 2.120962546809361129e+02 3.767185809134167229e+00 5.719791737981234220e-02
2.238535836526606981e-01 2.142488986779774223e+02 3.892330869934933713e+00 5.907258976189413285e-02
2.260632343686747592e-01 2.164027984717232300e+02 4.021645447909695470e+00 6.100169705800023018e-02
2.282728850846888202e-01 2.185579831494146958e+02 4.155254406658383637e+00 6.298613606619146710e-02
3.052469078380625200e-01 2.953906847949627945e+02 1.695301003916434368e+01 2.649103384667487182e-01
3.822209305914362476e-01 3.773000883326432131e+02 4.734705432964252481e+01 4.668345408673060803e-01
4.591949533448099197e-01 4.671361877826380464e+02 9.904362828482686609e+01 6.687587432678632204e-01
5.361689760981835917e-01 5.672434255727201844e+02 1.639417483624320084e+02 6.318488062693542462e-01
6.131429988515573193e-01 6.762824512803375683e+02 2.151885300592605574e+02 3.231699863722414801e-01
6.901170216049310469e-01 7.901409431716933796e+02 2.457530272909484950e+02 2.160382830317872649e-01
7.670910443583046634e-01 9.070979454513681048e+02 2.724197073695825679e+02 2.397115282900930400e-01
8.440650671116783910e-01 1.026902281678712370e+03 3.025722006108654796e+02 2.633847735483988428e-01
9.210390898650521185e-01 1.149618988876510684e+03 3.363632565327549742e+02 2.870580188067046734e-01
9.980131126184258461e-01 1.275315215567661653e+03 3.739508758425270685e+02 3.107312640650104485e-01
1.074987135371799463e+00 1.404060144172534592e+03 4.154984855003083339e+02 3.344045093233162236e-01
1.151961158125173190e+00 1.535924948475047131e+03 4.611751167056908116e+02 3.580777545816220542e-01
1.228935180878546918e+00 1.670982774583178980e+03 5.111555865213241532e+02 3.817509998399278293e-01
1.305909203631920645e+00 1.809308738229517985e+03 5.656206836627966368e+02 4.054242450982336599e-01
1.382883226385294373e+00 1.950979933831204789e+03 6.247573588691564055e+02 4.290974903565394349e-01
1.459857249138668100e+00 2.096075452287690496e+03 6.887589201949842845e+02 4.527707356148452655e-01
1.536831271892041828e+00 2.244676405471929229e+03 7.578252335171663390e+02 4.764439808731510406e-01
1.613805294645415556e+00 2.396865956001487120e+03 8.321629285181425075e+02 5.001172261314568157e-01
1.690779317398789283e+00 2.552729351294118715e+03 9.119856103868066839e+02 5.237904713897626463e-01
1.767753340152163011e+00 2.712353961195874035e+03 9.975140774648890556e+02 5.474637166480684769e-01
1.844727362905536516e+00 2.875829318666135805e+03 1.088976545058317015e+03 5.711369619063741965e-01
1.921701385658910244e+00 3.043247163142466889e+03 1.186608875628258147e+03 5.948102071646801381e-01
1.998675408412283971e+00 3.214701486307614687e+03 1.290654815574294844e+03 6.184834524229858577e-01
2.075649431165657699e+00 3.390288580053503210e+03 1.401366238821826528e+03 6.421566976812916883e-01
