# density  energy_density  pressure   sound_speed_squared  [All in nuclear units]
2.720000000000000022e-14 2.529924618736292620e-11 1.061056609100270887e-19 3.766610435412189122e-08
1.269999999999999890e-13 1.181251617980081254e-10 4.870113551826584858e-18 6.497781477172163475e-08
6.929999999999999754e-13 6.445728594625782745e-10 1.018299070687946017e-16 3.033770597342807186e-07
6.295000000000000137e-12 5.855111460395753757e-09 5.487150723824490656e-15 1.763710043904196507e-06
1.581000000000000150e-11 1.470523320212576141e-08 2.904239460150760759e-14 3.559434472327477622e-06
3.971999999999999958e-11 3.694456170323160790e-08 1.439340266754906811e-13 6.772854871245677111e-06
9.975999999999999982e-11 9.278976412613005154e-08 6.812143616221268841e-13 1.246890511177539320e-05
2.505999999999999928e-10 2.330928829758143313e-07 3.107749196951638608e-12 2.212095130576091967e-05
6.294000000000000186e-10 5.854398883216247602e-07 1.363250409771533549e-11 3.761981047239428883e-05
1.581000000000000021e-09 1.470619631082054101e-06 5.726014178088476303e-11 6.095350986710739404e-05
3.971999999999999932e-09 3.694861084648016046e-06 2.210019573374265380e-10 8.628023653304385055e-05
5.000000000000000105e-09 4.651201787816927976e-06 3.071485916280120014e-10 9.387863480799757518e-05
9.975999999999999465e-09 9.280587964640925786e-06 8.385361004129998845e-10 1.356922228656245837e-04
1.989999999999999952e-08 1.851419242998081003e-05 2.287763168863418088e-09 1.782101978513718314e-04
3.972999999999999908e-08 3.696699295748789187e-05 6.061583099087538954e-09 2.308134738384234820e-04
7.925999999999999637e-08 7.375765469301719828e-05 1.575347858094044765e-08 2.960532096713864875e-04
1.580999999999999930e-07 1.471491184379128891e-04 3.910429618672550719e-08 3.402859755131850544e-04
1.991000000000000027e-07 1.853209783927820692e-04 5.252045687899177454e-08 3.626488188833278743e-04
3.155999999999999938e-07 2.938002528823880299e-04 9.730770378831954314e-08 4.630767356912104081e-04
5.000999999999999849e-07 4.656344063839075714e-04 1.837494945860225819e-07 5.430301232045120323e-04
6.295999999999999732e-07 5.862651417037388971e-04 2.503103884558263872e-07 5.605192962670089638e-04
9.666999999999999941e-07 9.003386739730535665e-04 4.324450868778576936e-07 5.993081670211623108e-04
1.531999999999999901e-06 1.427170885631398036e-03 7.780217275717420968e-07 7.125938556504039095e-04
2.506999999999999883e-06 2.336134972129507662e-03 1.471005394641589826e-06 8.121876172121876309e-04
3.974000000000000407e-06 3.704315759716615697e-03 2.695705763844323844e-06 9.780674166779417152e-04
4.830000000000000343e-06 4.502887798316278223e-03 3.503988717694660908e-06 1.046253037768318664e-03
6.080999999999999885e-06 5.670217999231269741e-03 4.731126407333307547e-06 1.056224360839501646e-03
7.930000000000000308e-06 7.396012414119570652e-03 6.599662989063778187e-06 1.109203753630785610e-03
9.982000000000000313e-06 9.311815711689977113e-03 8.879881089227186733e-06 1.271216815433141075e-03
1.256999999999999993e-05 1.172874412604260098e-02 1.207676739913533738e-05 1.374195438212825332e-03
1.521999999999999997e-05 1.420427250933824909e-02 1.547541302213394990e-05 1.371610497379100249e-03
1.991000000000000080e-05 1.858690797761085312e-02 2.160710455847765458e-05 1.426578142835871997e-03
2.506999999999999883e-05 2.341050104039446925e-02 2.908031724375689851e-05 1.672007475975408053e-03
2.790999999999999875e-05 2.606604784714952258e-02 3.357009132255487721e-05 1.709425557744154774e-03
3.806999999999999973e-05 3.556967988784798945e-02 4.986781576435106434e-05 1.720407281314112165e-03
5.063000000000000145e-05 4.732434580343149871e-02 7.073400252905581275e-05 1.829889149838781265e-03
6.592000000000000583e-05 6.164112392498975052e-02 9.765037643900635188e-05 1.930242980462695823e-03
8.433000000000000066e-05 7.888776783401378612e-02 1.317235490470395893e-04 2.021055815200022837e-03
1.062000000000000064e-04 9.938561165478684845e-02 1.740088341640037047e-04 2.104789529260958983e-03
1.321000000000000126e-04 1.236720406455826121e-01 2.260189757651373944e-04 2.178291718403657477e-03
1.623999999999999901e-04 1.520974545104751274e-01 2.888169908545388338e-04 2.240170365918073281e-03
1.689999999999999879e-04 1.582907717069566844e-01 3.027354772999506964e-04 2.254509350360745651e-03
1.758999999999999930e-04 1.647661861691531171e-01 3.173785841705756782e-04 2.268169273277113179e-03
1.830000000000000029e-04 1.714298948183871907e-01 3.325196584577469103e-04 2.276170334580628063e-03
1.901999999999999882e-04 1.781880600978280049e-01 3.479577791899843742e-04 2.292561569242367037e-03
1.977000000000000079e-04 1.852284385240466902e-01 3.641242634600037713e-04 2.299943765467868384e-03
2.054000000000000053e-04 1.924572004474696396e-01 3.808304060475003897e-04 2.322187632288155723e-03
2.079000000000000119e-04 1.948043378760714872e-01 3.864137987380476553e-04 2.435429768083530178e-03
2.081999999999999921e-04 1.950859988578999005e-01 3.870314100985603909e-04 1.950065624557156818e-03
2.090999999999999868e-04 1.959309855029948977e-01 3.881261957135444685e-04 6.411875526909013856e-04
2.159999999999999919e-04 2.024093317906446865e-01 3.940874488768042125e-04 1.199166870571831411e-03
2.231000000000000019e-04 2.090756740932291913e-01 4.013938420547467825e-04 9.928616047829054436e-04
2.311000000000000066e-04 2.165873044433437034e-01 4.085241694843774404e-04 9.056166966301716637e-04
2.401000000000000085e-04 2.250381721984245909e-01 4.159700687886608468e-04 8.565463878902855599e-04
2.500000000000000052e-04 2.343344406330727658e-01 4.237602369176299592e-04 8.194318812157330018e-04
2.642999999999999733e-04 2.477629128650125634e-01 4.345596643180389446e-04 7.890063723638815647e-04
3.052999999999999941e-04 2.862671839140227270e-01 4.644058706720978241e-04 7.612775562167708662e-04
3.533000000000000224e-04 3.313503829113090826e-01 4.987577676308450197e-04 7.626578558207241024e-04
4.075999999999999871e-04 3.823564017794535141e-01 5.381334366106255759e-04 7.813048116943254948e-04
4.679999999999999915e-04 4.390986251953180042e-01 5.832692638200615834e-04 8.096035963157804938e-04
5.341000000000000261e-04 5.012024644415256081e-01 6.346556894078133086e-04 8.452514814113673558e-04
6.059000000000000366e-04 5.686690698184251325e-01 6.930641302632923034e-04 8.862253587289389486e-04
7.661000000000000275e-04 7.192254882508629654e-01 8.328184776562496576e-04 9.702780530519144065e-04
1.262000000000000101e-03 1.185459127778160093e+00 1.338484980802662205e-03 1.198863597978450275e-03
1.894999999999999983e-03 1.780909071169781921e+00 2.123481960401060308e-03 1.437771491635827115e-03
2.673000000000000029e-03 2.513147344746868850e+00 3.261860252001994032e-03 1.671524566936786766e-03
3.605999999999999830e-03 3.391736073717691369e+00 4.828136641022434151e-03 1.893900408978071038e-03
4.709999999999999777e-03 4.431905410739045870e+00 6.903512974832482635e-03 2.096551352830673849e-03
7.496000000000000059e-03 7.058993649504918366e+00 1.289742191321638018e-02 2.466596387205546859e-03
1.119999999999999989e-02 1.055540362104863661e+01 2.212077014004794340e-02 2.809304433764861584e-03
1.600000000000000033e-02 1.509117352747679952e+01 3.559566804390756900e-02 3.132325055719984222e-03
2.206999999999999934e-02 2.083310616724802244e+01 5.457322122755020599e-02 3.477840948757840792e-03
2.947999999999999926e-02 2.785007348564149154e+01 8.049103664263126956e-02 3.909302116317729670e-03
4.268000000000000266e-02 4.036707211535221518e+01 1.353887601042819133e-01 4.862066536253286525e-03
6.219999999999999835e-02 5.891246509830522626e+01 2.419691225623893105e-01 6.630786177272363080e-03
7.316999999999999893e-02 6.935151695866235855e+01 3.161896974764099033e-01 7.588671314871411888e-03
7.595999999999999974e-02 7.200836722020332559e+01 3.371250777904805096e-01 8.170805199905812125e-03
7.685877551020407761e-02 7.286441685921057854e+01 3.442162420631375563e-01 8.396365403822186879e-03
7.775755102040816935e-02 7.372055059325296611e+01 3.515083888391357103e-01 8.638688831014625438e-03
7.865632653061224722e-02 7.457676985432949834e+01 3.590155673579067952e-01 8.896944774329127240e-03
7.955510204081632508e-02 7.543307619824489052e+01 3.667511219072791540e-01 9.170302526611700394e-03
8.045387755102040295e-02 7.628947129244772896e+01 3.747276916955536996e-01 9.457931380708358218e-03
8.135265306122449469e-02 7.714595690441086617e+01 3.829572107161832162e-01 9.759000629465103618e-03
8.225142857142857256e-02 7.800253489052344946e+01 3.914509076013192312e-01 1.007267956572793603e-02
8.315020408163265042e-02 7.885920718546744013e+01 4.002193054609403111e-01 1.039813748234286531e-02
8.404897959183672829e-02 7.971597579205058537e+01 4.092722217046835254e-01 1.073454367215590129e-02
8.494775510204082003e-02 8.057284277147354601e+01 4.186187678438928472e-01 1.108106742801305035e-02
8.584653061224489790e-02 8.142981023400594154e+01 4.282673492717515296e-01 1.143687804276031020e-02
8.674530612244897576e-02 8.228688033005042257e+01 4.382256650197057790e-01 1.180114480924369415e-02
8.764408163265305363e-02 8.314405524157507443e+01 4.485007074886933065e-01 1.217303702030920511e-02
8.854285714285714537e-02 8.400133717389356036e+01 4.590987621539875385e-01 1.255172396880286159e-02
8.944163265306122323e-02 8.485872834777687501e+01 4.700254072427374474e-01 1.293637494757064743e-02
9.034040816326530110e-02 8.571623099187779360e+01 4.812855133835418631e-01 1.332615924945858114e-02
9.123918367346939284e-02 8.657384733545376321e+01 4.928832432276308295e-01 1.372024616731267257e-02
9.213795918367347071e-02 8.743157960137266116e+01 5.048220510414556106e-01 1.411780499397892116e-02
9.303673469387754857e-02 8.828942999938715275e+01 5.171046822706981683e-01 1.451800502230333155e-02
9.393551020408162644e-02 8.914740071966448909e+01 5.297331730759051727e-01 1.492001554513191532e-02
9.483428571428570431e-02 9.000549392656002112e+01 5.427088498401407834e-01 1.532300585531067537e-02
9.573306122448979605e-02 9.086371175262107158e+01 5.560323286492259154e-01 1.572614524568562155e-02
9.663183673469387391e-02 9.172205629281151573e+01 5.697035147452932380e-01 1.612860300910275851e-02
9.753061224489795178e-02 9.258052959894595801e+01 5.837216019545488077e-01 1.652954843840808569e-02
9.842938775510204352e-02 9.343913367432375594e+01 5.980850720902669559e-01 1.692815082644762159e-02
9.932816326530612139e-02 9.429787046855302890e+01 6.127916943321921606e-01 1.732357946606736393e-02
1.002269387755101993e-01 9.515674187255690697e+01 6.278385245836487494e-01 1.771500365011331735e-02
1.011257142857142910e-01 9.601574971375301004e+01 6.432219048077785217e-01 1.810159267143149342e-02
1.020244897959183689e-01 9.687489575139717601e+01 6.589374623444477219e-01 1.848251582286789679e-02
1.029232653061224467e-01 9.773418167208718899e+01 6.749801092094758204e-01 1.885694239726852517e-02
1.038220408163265246e-01 9.859360908541533774e+01 6.913440413779359250e-01 1.922404168747940054e-02
1.047208163265306025e-01 9.945317951976660709e+01 7.080227380533845594e-01 1.958298298634651713e-02
1.056195918367346942e-01 1.003128944182543734e+02 7.250089609249674716e-01 1.993293558671589000e-02
1.065183673469387721e-01 1.011727551347876499e+02 7.422947534144376247e-01 2.027306878143351684e-02
1.074171428571428499e-01 1.020327629302654628e+02 7.598714399152122212e-01 2.060255186334540231e-02
1.083159183673469417e-01 1.028929189688914647e+02 7.777296250256667820e-01 2.092055412529756492e-02
1.092146938775510195e-01 1.037532243146050774e+02 7.958591927789498977e-01 2.122624486013599543e-02
1.101134693877550974e-01 1.046136799276234512e+02 8.142493058716749887e-01 2.151879336070670889e-02
1.110122448979591891e-01 1.054742866610898773e+02 8.328884048939090290e-01 2.179736891985570996e-02
1.119110204081632531e-01 1.063350452578250440e+02 8.517642075629501264e-01 2.206114083042900673e-02
1.128097959183673449e-01 1.071959563471757946e+02 8.708637079634556910e-01 2.230927838527260385e-02
1.137085714285714227e-01 1.080570204419590681e+02 8.901731757965229974e-01 2.254095087723250596e-02
1.146073469387755006e-01 1.089182379354960091e+02 9.096781556404133218e-01 2.275532759915471770e-02
1.155061224489795924e-01 1.097796090987335447e+02 9.293634662256359258e-01 2.295157784388525066e-02
1.164048979591836702e-01 1.106411340774501184e+02 9.492131997271805455e-01 2.312887090427010600e-02
1.173036734693877481e-01 1.115028128895417154e+02 9.692107210767345604e-01 2.328637607315529184e-02
1.182024489795918398e-01 1.123646454223870421e+02 9.893386672977619867e-01 2.342326264338681630e-02
1.191012244897959177e-01 1.132266314302865879e+02 1.009578946866376281e+00 2.353869990781068400e-02
1.199999999999999956e-01 1.140887705319750722e+02 1.029912739100983465e+00 2.363185715927289959e-02
1.218182376112155463e-01 1.158333582191041273e+02 1.071264823007070710e+00 2.377427783354375823e-02
1.236364752224310831e-01 1.175785652296600574e+02 1.112898343023753345e+00 2.393755479486017052e-02
1.254547128336466200e-01 1.193243868674230015e+02 1.154850668478368592e+00 2.412269765308654168e-02
1.272729504448621707e-01 1.210708191270389165e+02 1.197160982437819987e+00 2.433071240584805048e-02
1.290911880560777214e-01 1.228178586902941873e+02 1.239870278119802327e+00 2.456260185787572867e-02
1.309094256672932721e-01 1.245655029225554955e+02 1.283021356127239221e+00 2.481936601743844201e-02
1.327276632785088228e-01 1.263137498693733249e+02 1.326658822480294875e+00 2.510200246995370268e-02
1.345459008897243458e-01 1.280625982532517355e+02 1.370829087420325276e+00 2.541150672894981755e-02
1.363641385009398965e-01 1.298120474705797562e+02 1.415580364960283388e+00 2.574887256461891663e-02
1.381823761121554472e-01 1.315620975887264024e+02 1.460962673156372071e+00 2.611509231026674580e-02
1.400006137233709980e-01 1.333127493432958772e+02 1.507027835076073075e+00 2.651115714689288028e-02
1.418188513345865487e-01 1.350640041355434278e+02 1.553829480438247979e+00 2.693805736650760688e-02
1.436370889458020716e-01 1.368158640299471074e+02 1.601423047901478824e+00 2.739678261423758240e-02
1.454553265570176224e-01 1.385683317519370235e+02 1.649865787977328413e+00 2.788832210986916596e-02
1.472735641682331731e-01 1.403214106857771242e+02 1.699216766545936563e+00 2.841366484913527765e-02
1.490918017794487238e-01 1.420751048725992121e+02 1.749536868951967472e+00 2.897379978517334448e-02
1.509100393906642745e-01 1.438294190085860293e+02 1.800888804659581233e+00 2.956971599056593125e-02
1.527282770018797975e-01 1.455843584433005731e+02 1.853337112445788470e+00 3.020240280037107816e-02
1.545465146130953760e-01 1.473399291781607872e+02 1.906948166112234055e+00 3.087284993654403759e-02
1.563647522243108989e-01 1.490961378650553684e+02 1.961790180696104002e+00 3.158204761414315498e-02
1.581829898355264497e-01 1.508529918050992364e+02 2.017933219161573088e+00 3.233098662970094322e-02
1.600012274467420004e-01 1.526104989475258549e+02 2.075449199553805801e+00 3.312065843214652416e-02
1.618194650579575511e-01 1.543686678887134178e+02 2.134411902598219779e+00 3.395205517659858480e-02
1.636377026691731018e-01 1.561275078713424307e+02 2.194896979728317543e+00 3.482616976143396159e-02
1.654559402803886248e-01 1.578870287836827231e+02 2.256981961526031810e+00 3.574399584891790188e-02
1.672741778916041755e-01 1.596472411590062279e+02 2.320746266559101212e+00 3.670652786973681303e-02
1.690924155028197262e-01 1.614081561751235085e+02 2.386271210600555914e+00 3.771476101173604906e-02
1.709106531140352769e-01 1.631697856540410498e+02 2.453640016215974384e+00 3.876969119315696460e-02
1.727288907252508277e-01 1.649321420617374372e+02 2.522937822704661492e+00 3.987231502065443495e-02
1.745471283364663506e-01 1.666952385080548709e+02 2.594251696381426608e+00 4.102362973236273191e-02
1.763653659476819013e-01 1.684590887467044240e+02 2.667670641186113745e+00 4.222463312626804216e-02
1.781836035588974521e-01 1.702237071753816053e+02 2.743285609608482556e+00 4.347632347413190462e-02
1.800018411701130028e-01 1.719891088359901232e+02 2.821189513916504410e+00 4.477969942120248875e-02
1.818200787813285535e-01 1.737553094149720891e+02 2.901477237676517884e+00 4.613575987193777733e-02
1.836383163925440765e-01 1.755223252437409087e+02 2.984245647554104153e+00 4.754550386195798006e-02
1.854565540037596272e-01 1.772901732992155530e+02 3.069593605384909552e+00 4.900993041643524062e-02
1.872747916149751779e-01 1.790588712044528563e+02 3.157621980504970782e+00 5.053003839512106021e-02
1.890930292261907286e-01 1.808284372293772435e+02 3.248433662330477034e+00 5.210682632420599730e-02
1.909112668374062793e-01 1.825988902916031122e+02 3.342133573177162642e+00 5.374129221519913235e-02
1.927295044486218023e-01 1.843702499573501825e+02 3.438828681309849866e+00 5.543443337101118529e-02
1.945477420598373808e-01 1.861425364424474083e+02 3.538628014212933603e+00 5.718724617941963601e-02
1.963659796710529037e-01 1.879157706134254795e+02 3.641642672072817888e+00 5.900072589409134649e-02
1.981842172822684545e-01 1.896899739886933389e+02 3.747985841463648438e+00 6.087586640333634419e-02
2.000024548934840052e-01 1.914651687397985143e+02 3.857772809227776101e+00 6.281365998676236018e-02
2.018206925046995281e-01 1.932413776927691345e+02 3.971120976542726666e+00 6.481509706000170012e-02
2.036389301159151066e-01 1.950186243295342194e+02 4.088149873166574189e+00 6.688116590767961833e-02
2.054571677271306296e-01 1.967969327894217031e+02 4.208981171853777958e+00 6.901285240479365646e-02
2.072754053383461803e-01 1.985763278707306938e+02 4.333738702933827902e+00 7.121113972667725278e-02
2.090936429495617310e-01 2.003568350323792515e+02 4.462548469045015231e+00 7.347700804771951921e-02
2.864590788077339134e-01 2.777297926087077826e+02 1.471596196682742175e+01 1.891367046640877181e-01
3.638245146659061513e-01 3.590648732378078307e+02 3.495404091367850441e+01 3.047964012804559863e-01
4.411899505240783892e-01 4.457523165479963154e+02 6.588747236940415064e+01 4.049203607631906010e-01
5.185553863822505161e-01 5.386387540839234589e+02 1.048323116032648983e+02 4.329125374618550959e-01
5.959208222404228650e-01 6.377326634973852606e+02 1.491550606301725566e+02 4.609047141605197018e-01
6.732862580985949918e-01 7.429441575821198285e+02 1.991602092753490751e+02 4.888968908591841966e-01
7.506516939567671187e-01 8.542405928407586089e+02 2.551736961036988589e+02 5.168890675578486915e-01
8.280171298149394676e-01 9.716296386308658839e+02 3.174875199820574494e+02 5.440184077104235350e-01
9.053825656731115945e-01 1.095136473715543616e+03 3.860668358831286469e+02 5.659543486514442279e-01
9.827480015312839434e-01 1.224766045069275833e+03 4.608899278964452151e+02 5.878902895924650318e-01
1.060113437389456070e+00 1.360538458548945073e+03 5.422374367126345760e+02 6.098262305334857247e-01
1.137478873247628197e+00 1.502491857128657330e+03 6.304025526802417971e+02 6.317621714745064176e-01
1.214844309105800546e+00 1.650679575272385136e+03 7.256907611371065059e+02 6.536981124155271106e-01
1.292209744963972673e+00 1.805168010040565150e+03 8.284197550547901301e+02 6.756340533565478035e-01
1.369575180822145022e+00 1.966035002048844490e+03 9.389194660938983361e+02 6.975699942975686074e-01
1.446940616680317149e+00 2.133368587545139690e+03 1.057532182191385800e+03 7.195059352385893003e-01
1.524306052538489276e+00 2.307266026130802857e+03 1.184612730374529065e+03 7.414418761796099933e-01
1.601671488396661625e+00 2.487833036917784284e+03 1.320528710260969092e+03 7.633778171206306862e-01
1.679036924254833751e+00 2.675183194857602757e+03 1.465660768145883594e+03 7.853137580616513791e-01
1.756402360113006100e+00 2.869437451962114665e+03 1.620402904561482956e+03 8.072496990026720720e-01
1.833767795971178227e+00 3.070723757215643673e+03 1.785162810240558656e+03 8.291856399436927649e-01
1.911133231829350354e+00 3.279178834533031477e+03 1.961033012956467246e+03 8.573365457883366236e-01
1.988498667687522703e+00 3.494995594518171856e+03 2.149198949917238679e+03 8.855546686850009896e-01
2.065864103545694608e+00 3.718377557991120284e+03 2.350266225858794769e+03 9.137727915816652446e-01
