# density  energy_density  pressure   sound_speed_squared  [All in nuclear units]
2.720000000000000022e-14 2.529924618736292620e-11 1.061056609100270887e-19 3.766610435412189122e-08
1.269999999999999890e-13 1.181251617980081254e-10 4.870113551826584858e-18 6.497781477172163475e-08
6.929999999999999754e-13 6.445728594625782745e-10 1.018299070687946017e-16 3.033770597342807186e-07
6.295000000000000137e-12 5.855111460395753757e-09 5.487150723824490656e-15 1.763710043904196507e-06
1.581000000000000150e-11 1.470523320212576141e-08 2.904239460150760759e-14 3.559434472327477622e-06
3.971999999999999958e-11 3.694456170323160790e-08 1.439340266754906811e-13 6.772854871245677111e-06
9.975999999999999982e-11 9.278976412613005154e-08 6.812143616221268841e-13 1.246890511177539320e-05
2.505999999999999928e-10 2.330928829758143313e-07 3.107749196951638608e-12 2.212095130576091967e-05
6.294000000000000186e-10 5.854398883216247602e-07 1.363250409771533549e-11 3.761981047239428883e-05
1.581000000000000021e-09 1.470619631082054101e-06 5.726014178088476303e-11 6.095350986710739404e-05
3.971999999999999932e-09 3.694861084648016046e-06 2.210019573374265380e-10 8.628023653304385055e-05
5.000000000000000105e-09 4.651201787816927976e-06 3.071485916280120014e-10 9.387863480799757518e-05
9.975999999999999465e-09 9.280587964640925786e-06 8.385361004129998845e-10 1.356922228656245837e-04
1.989999999999999952e-08 1.851419242998081003e-05 2.287763168863418088e-09 1.782101978513718314e-04
3.972999999999999908e-08 3.696699295748789187e-05 6.061583099087538954e-09 2.308134738384234820e-04
7.925999999999999637e-08 7.375765469301719828e-05 1.575347858094044765e-08 2.960532096713864875e-04
1.580999999999999930e-07 1.471491184379128891e-04 3.910429618672550719e-08 3.402859755131850544e-04
1.991000000000000027e-07 1.853209783927820692e-04 5.252045687899177454e-08 3.626488188833278743e-04
3.155999999999999938e-07 2.938002528823880299e-04 9.730770378831954314e-08 4.630767356912104081e-04
5.000999999999999849e-07 4.656344063839075714e-04 1.837494945860225819e-07 5.430301232045120323e-04
6.295999999999999732e-07 5.862651417037388971e-04 2.503103884558263872e-07 5.605192962670089638e-04
9.666999999999999941e-07 9.003386739730535665e-04 4.324450868778576936e-07 5.993081670211623108e-04
1.531999999999999901e-06 1.427170885631398036e-03 7.780217275717420968e-07 7.125938556504039095e-04
2.506999999999999883e-06 2.336134972129507662e-03 1.471005394641589826e-06 8.121876172121876309e-04
3.974000000000000407e-06 3.704315759716615697e-03 2.695705763844323844e-06 9.780674166779417152e-04
4.830000000000000343e-06 4.502887798316278223e-03 3.503988717694660908e-06 1.046253037768318664e-03
6.080999999999999885e-06 5.670217999231269741e-03 4.731126407333307547e-06 1.056224360839501646e-03
7.930000000000000308e-06 7.396012414119570652e-03 6.599662989063778187e-06 1.109203753630785610e-03
9.982000000000000313e-06 9.311815711689977113e-03 8.879881089227186733e-06 1.271216815433141075e-03
1.256999999999999993e-05 1.172874412604260098e-02 1.207676739913533738e-05 1.374195438212825332e-03
1.521999999999999997e-05 1.420427250933824909e-02 1.547541302213394990e-05 1.371610497379100249e-03
1.991000000000000080e-05 1.858690797761085312e-02 2.160710455847765458e-05 1.426578142835871997e-03
2.506999999999999883e-05 2.341050104039446925e-02 2.908031724375689851e-05 1.672007475975408053e-03
2.790999999999999875e-05 2.606604784714952258e-02 3.357009132255487721e-05 1.709425557744154774e-03
3.806999999999999973e-05 3.556967988784798945e-02 4.986781576435106434e-05 1.720407281314112165e-03
5.063000000000000145e-05 4.732434580343149871e-02 7.073400252905581275e-05 1.829889149838781265e-03
6.592000000000000583e-05 6.164112392498975052e-02 9.765037643900635188e-05 1.930242980462695823e-03
8.433000000000000066e-05 7.888776783401378612e-02 1.317235490470395893e-04 2.021055815200022837e-03
1.062000000000000064e-04 9.938561165478684845e-02 1.740088341640037047e-04 2.104789529260958983e-03
1.321000000000000126e-04 1.236720406455826121e-01 2.260189757651373944e-04 2.178291718403657477e-03
1.623999999999999901e-04 1.520974545104751274e-01 2.888169908545388338e-04 2.240170365918073281e-03
1.689999999999999879e-04 1.582907717069566844e-01 3.027354772999506964e-04 2.254509350360745651e-03
1.758999999999999930e-04 1.647661861691531171e-01 3.173785841705756782e-04 2.268169273277113179e-03
1.830000000000000029e-04 1.714298948183871907e-01 3.325196584577469103e-04 2.276170334580628063e-03
1.901999999999999882e-04 1.781880600978280049e-01 3.479577791899843742e-04 2.292561569242367037e-03
1.977000000000000079e-04 1.852284385240466902e-01 3.641242634600037713e-04 2.299943765467868384e-03
2.054000000000000053e-04 1.924572004474696396e-01 3.808304060475003897e-04 2.322187632288155723e-03
2.079000000000000119e-04 1.948043378760714872e-01 3.864137987380476553e-04 2.435429768083530178e-03
2.081999999999999921e-04 1.950859988578999005e-01 3.870314100985603909e-04 1.950065624557156818e-03
2.090999999999999868e-04 1.959309855029948977e-01 3.881261957135444685e-04 6.411875526909013856e-04
2.159999999999999919e-04 2.024093317906446865e-01 3.940874488768042125e-04 1.199166870571831411e-03
2.231000000000000019e-04 2.090756740932291913e-01 4.013938420547467825e-04 9.928616047829054436e-04
2.311000000000000066e-04 2.165873044433437034e-01 4.085241694843774404e-04 9.056166966301716637e-04
2.401000000000000085e-04 2.250381721984245909e-01 4.159700687886608468e-04 8.565463878902855599e-04
2.500000000000000052e-04 2.343344406330727658e-01 4.237602369176299592e-04 8.194318812157330018e-04
2.642999999999999733e-04 2.477629128650125634e-01 4.345596643180389446e-04 7.890063723638815647e-04
3.052999999999999941e-04 2.862671839140227270e-01 4.644058706720978241e-04 7.612775562167708662e-04
3.533000000000000224e-04 3.313503829113090826e-01 4.987577676308450197e-04 7.626578558207241024e-04
4.075999999999999871e-04 3.823564017794535141e-01 5.381334366106255759e-04 7.813048116943254948e-04
4.679999999999999915e-04 4.390986251953180042e-01 5.832692638200615834e-04 8.096035963157804938e-04
5.341000000000000261e-04 5.012024644415256081e-01 6.346556894078133086e-04 8.452514814113673558e-04
6.059000000000000366e-04 5.686690698184251325e-01 6.930641302632923034e-04 8.862253587289389486e-04
7.661000000000000275e-04 7.192254882508629654e-01 8.328184776562496576e-04 9.702780530519144065e-04
1.262000000000000101e-03 1.185459127778160093e+00 1.338484980802662205e-03 1.198863597978450275e-03
1.894999999999999983e-03 1.780909071169781921e+00 2.123481960401060308e-03 1.437771491635827115e-03
2.673000000000000029e-03 2.513147344746868850e+00 3.261860252001994032e-03 1.671524566936786766e-03
3.605999999999999830e-03 3.391736073717691369e+00 4.828136641022434151e-03 1.893900408978071038e-03
4.709999999999999777e-03 4.431905410739045870e+00 6.903512974832482635e-03 2.096551352830673849e-03
7.496000000000000059e-03 7.058993649504918366e+00 1.289742191321638018e-02 2.466596387205546859e-03
1.119999999999999989e-02 1.055540362104863661e+01 2.212077014004794340e-02 2.809304433764861584e-03
1.600000000000000033e-02 1.509117352747679952e+01 3.559566804390756900e-02 3.132325055719984222e-03
2.206999999999999934e-02 2.083310616724802244e+01 5.457322122755020599e-02 3.477840948757840792e-03
2.947999999999999926e-02 2.785007348564149154e+01 8.049103664263126956e-02 3.909302116317729670e-03
4.268000000000000266e-02 4.036707211535221518e+01 1.353887601042819133e-01 4.862066536253286525e-03
6.219999999999999835e-02 5.891246509830522626e+01 2.419691225623893105e-01 6.630786177272363080e-03
7.316999999999999893e-02 6.935151695866235855e+01 3.161896974764099033e-01 7.588671314871411888e-03
7.595999999999999974e-02 7.200836722020332559e+01 3.371250777904805096e-01 8.170805199905812125e-03
7.685877551020407761e-02 7.286441677580660325e+01 3.442019687272457884e-01 8.363021683559755670e-03
7.775755102040816935e-02 7.372055004007839329e+01 3.514420775257131591e-01 8.550479548322307416e-03
7.865632653061224722e-02 7.457676790969954084e+01 3.588415165847962940e-01 8.733522807539051760e-03
7.955510204081632508e-02 7.543307121810133253e+01 3.663966916599622481e-01 8.912495474555578306e-03
8.045387755102040295e-02 7.628946074092451113e+01 3.741043019616991927e-01 9.087741562717473187e-03
8.135265306122449469e-02 7.714593720123532705e+01 3.819613402618342035e-01 9.259605085370322536e-03
8.225142857142857256e-02 7.800250127451239734e+01 3.899650930068795374e-01 9.428430055859715955e-03
8.315020408163265042e-02 7.885915359341682063e+01 3.981131404376758720e-01 9.594560487531236109e-03
8.404897959183672829e-02 7.971589475235718680e+01 4.064033567146791426e-01 9.758340393730472601e-03
8.494775510204082003e-02 8.057272531186106335e+01 4.148339100483171005e-01 9.920113787803015032e-03
8.584653061224489790e-02 8.142964580276249364e+01 4.234032628339098880e-01 1.008022468309444086e-02
8.674530612244897576e-02 8.228665673021542659e+01 4.321101717907172568e-01 1.023901709295034837e-02
8.764408163265305363e-02 8.314375857754274080e+01 4.409536881047331214e-01 1.039683503071631675e-02
8.854285714285714537e-02 8.400095180992865096e+01 4.499331575749095369e-01 1.055402250973793907e-02
8.944163265306122323e-02 8.485823687796244030e+01 4.590482207625424249e-01 1.071092354336079799e-02
9.034040816326530110e-02 8.571561422104134920e+01 4.682988131436057189e-01 1.086788214493048139e-02
9.123918367346939284e-02 8.657308427064000966e+01 4.776851652638625656e-01 1.102524232779257540e-02
9.213795918367347071e-02 8.743064745345174060e+01 4.872078028966300711e-01 1.118334810529266442e-02
9.303673469387754857e-02 8.828830419440973287e+01 4.968675472031160445e-01 1.134254349077634151e-02
9.393551020408162644e-02 8.914605491959233063e+01 5.066655148952806664e-01 1.150317249758919282e-02
9.483428571428570431e-02 9.000390005901888912e+01 5.166031184012170874e-01 1.166557913907679753e-02
9.573306122448979605e-02 9.086184004934168001e+01 5.266820660330776560e-01 1.183010742858475565e-02
9.663183673469387391e-02 9.171987533643716972e+01 5.369043621576021774e-01 1.199710137945864119e-02
9.753061224489795178e-02 9.257800637790397502e+01 5.472723073693416262e-01 1.216690500504404547e-02
9.842938775510204352e-02 9.343623364546894550e+01 5.577884986666904465e-01 1.233986231868656330e-02
9.932816326530612139e-02 9.429455762730792401e+01 5.684558296308744874e-01 1.251631733373176868e-02
1.002269387755101993e-01 9.515297883028367210e+01 5.792774906080664366e-01 1.269661406352525640e-02
1.011257142857142910e-01 9.601149778210519514e+01 5.902569688948193782e-01 1.288109652141261781e-02
1.020244897959183689e-01 9.687011503341224739e+01 6.013980489270372987e-01 1.307010872073942689e-02
1.029232653061224467e-01 9.772883115978770263e+01 6.127048124727229039e-01 1.326399467485127499e-02
1.038220408163265246e-01 9.858764676370151392e+01 6.241816388287578787e-01 1.346309839709375344e-02
1.047208163265306025e-01 9.944656247638918956e+01 6.358332050219964726e-01 1.366776390081244838e-02
1.056195918367346942e-01 1.003055789596670877e+02 6.476644860149677330e-01 1.387833519935295114e-02
1.065183673469387721e-01 1.011646969076882385e+02 6.596807549164993567e-01 1.409515630606083744e-02
1.074171428571428499e-01 1.020239170486400866e+02 6.718875831975953394e-01 1.431857123428169863e-02
1.083159183673469417e-01 1.028832401463882320e+02 6.842908409129107028e-01 1.454892399736112257e-02
1.092146938775510195e-01 1.037426670020661277e+02 6.968966969281842339e-01 1.478655860864469887e-02
1.101134693877550974e-01 1.046021984556152375e+02 7.097116191540062680e-01 1.503181908147801019e-02
1.110122448979591891e-01 1.054618353872769632e+02 7.227423747863062076e-01 1.528504942920664439e-02
1.119110204081632531e-01 1.063215787190374186e+02 7.359960305539611225e-01 1.554659366517619282e-02
1.128097959183673449e-01 1.071814294160287631e+02 7.494799529739430977e-01 1.581679580273223640e-02
1.137085714285714227e-01 1.080413884878869055e+02 7.632018086144209956e-01 1.609599985522036647e-02
1.146073469387755006e-01 1.089014569900695619e+02 7.771695643662623887e-01 1.638454983598616743e-02
1.155061224489795924e-01 1.097616360251340382e+02 7.913914877233753087e-01 1.668278975837522715e-02
1.164048979591836702e-01 1.106219267439780936e+02 8.058761470723480036e-01 1.699106363573313350e-02
1.173036734693877481e-01 1.114823303470446234e+02 8.206324119918558813e-01 1.730971548140546740e-02
1.182024489795918398e-01 1.123428480854917382e+02 8.356694535623074849e-01 1.763908930873782713e-02
1.191012244897959177e-01 1.132034812623292908e+02 8.509967446862160001e-01 1.797952913107578321e-02
1.199999999999999956e-01 1.140642312335245805e+02 8.666240604197913422e-01 1.833137896176494086e-02
1.236006360063641590e-01 1.175137431155015975e+02 9.324496762643172953e-01 1.983341933260029596e-02
1.272012720127283225e-01 1.209652498264957643e+02 1.003617853496997503e+00 2.140506836462863216e-02
1.308019080190924721e-01 1.244188496378242519e+02 1.080377565094513992e+00 2.304647654247024210e-02
1.344025440254566495e-01 1.278746422842564385e+02 1.162979251990276408e+00 2.475779531053675167e-02
1.380031800318207991e-01 1.313327288864066986e+02 1.251674878044010120e+00 2.653917762018474791e-02
1.416038160381849487e-01 1.347932118826998931e+02 1.346717987522920490e+00 2.839077840188360471e-02
1.452044520445491260e-01 1.382561949697506805e+02 1.448363764854171620e+00 3.031275496984879234e-02
1.488050880509132756e-01 1.417217830501674030e+02 1.556869096435462563e+00 3.230526736555797834e-02
1.524057240572774530e-01 1.451900821869292315e+02 1.672492634313780924e+00 3.436847864571215827e-02
1.560063600636416026e-01 1.486611995636013148e+02 1.795494861562548339e+00 3.650255511947566450e-02
1.596069960700057799e-01 1.521352434497515844e+02 1.926138159204906941e+00 3.870766653921774852e-02
1.632076320763699295e-01 1.556123231710157597e+02 2.064686874546085793e+00 4.098398624845617233e-02
1.668082680827340791e-01 1.590925490833278388e+02 2.211407390791142014e+00 4.333169129025971761e-02
1.704089040890982565e-01 1.625760325508898916e+02 2.366568197835966725e+00 4.575096247898619711e-02
1.740095400954624061e-01 1.660628859275149694e+02 2.530439964129704844e+00 4.824198443790654600e-02
1.776101761018265834e-01 1.695532225410091769e+02 2.703295609515723452e+00 5.080494560498597517e-02
1.812108121081907330e-01 1.730471566803085750e+02 2.885410378966148492e+00 5.344003820884952322e-02
1.848114481145549104e-01 1.765448035851118220e+02 3.077061917132050795e+00 5.614745821675283521e-02
1.884120841209190600e-01 1.800462794377803561e+02 3.278530343637461097e+00 5.892740525619527547e-02
1.920127201272832096e-01 1.835517013573035570e+02 3.490098329050955517e+00 6.178008251165754972e-02
1.956133561336473869e-01 1.870611873951481812e+02 3.712051171473323752e+00 6.470569659780812943e-02
1.992139921400115643e-01 1.905748565328276811e+02 3.944676873684186624e+00 6.770445741040427567e-02
2.028146281463756861e-01 1.940928286810462851e+02 4.188266220794242045e+00 7.077657795601084711e-02
2.064152641527398635e-01 1.976152246802878381e+02 4.443112858353212680e+00 7.392227416156837982e-02
2.100159001591040409e-01 2.011421663027277589e+02 4.709513370866520887e+00 7.714176466476393990e-02
2.136165361654681905e-01 2.046737762553660218e+02 4.987767360676524042e+00 8.043527058609060976e-02
2.172171721718323401e-01 2.082101781842778792e+02 5.278177527166394434e+00 8.380301528341976836e-02
2.208178081781965174e-01 2.117514966799017770e+02 5.581049746246878662e+00 8.724522408985925515e-02
2.244184441845606670e-01 2.152978572832770965e+02 5.896693150088058388e+00 9.076212403562537723e-02
2.280190801909248166e-01 2.188493864931650421e+02 6.225420207059873867e+00 9.435394355461625138e-02
2.316197161972889940e-01 2.224062117739823350e+02 6.567546801846600779e+00 9.802091217634091580e-02
2.352203522036531713e-01 2.259684615644876544e+02 6.923392315701780930e+00 1.017632602038272827e-01
2.388209882100173209e-01 2.295362652871673674e+02 7.293279706811238938e+00 1.055812183781085350e-01
2.424216242163814705e-01 2.331097533582651522e+02 7.677535590732782467e+00 1.094750175298647293e-01
2.460222602227456479e-01 2.366890571984132521e+02 8.076490320882014018e+00 1.134448882187763796e-01
2.496228962291097975e-01 2.402743092438163899e+02 8.490478069034448794e+00 1.174910603611332566e-01
2.532235322354740026e-01 2.438656429579549467e+02 8.919836905814804595e+00 1.216137628462269776e-01
2.568241682418381244e-01 2.474631928437642046e+02 9.364908881144675235e+00 1.258132231420442115e-01
2.604248042482022463e-01 2.510670944562589852e+02 9.826040104620565430e+00 1.300896668907706999e-01
2.640254402545664236e-01 2.546774844155704329e+02 1.030358082579423140e+01 1.344433174946057796e-01
2.676260762609306010e-01 2.582945004203659209e+02 1.079788551432785582e+01 1.388743956923843004e-01
2.712267122672947783e-01 2.619182812616235196e+02 1.130931293999672782e+01 1.433831191274966277e-01
2.748273482736589557e-01 2.655489668367378044e+02 1.183822625251215577e+01 1.479697019075953413e-01
2.784279842800231330e-01 2.691866981639271899e+02 1.238499306113754805e+01 1.526343541565753914e-01
2.820286202863872549e-01 2.728316173969282659e+02 1.294998551407058152e+01 1.573772815593128260e-01
2.856292562927513767e-01 2.764838678399493119e+02 1.353358037756443899e+01 1.621986848996475328e-01
2.892298922991155541e-01 2.801435939628653387e+02 1.413615911476091291e+01 1.670987595920962743e-01
2.928305283054797314e-01 2.838109414166368651e+02 1.475810796420822513e+01 1.720776952077836264e-01
2.964311643118439088e-01 2.874860570489331053e+02 1.539981801803625139e+01 1.771356749950806220e-01
3.720142017748674923e-01 3.667103435462947232e+02 3.327094486984389476e+01 2.714849284181215516e-01
4.475972392378910758e-01 4.503942926405030676e+02 6.006933324564646881e+01 3.658341818411625090e-01
5.231802767009147148e-01 5.393886010195424205e+02 9.699045654555200713e+01 4.601834352642034665e-01
5.987633141639383538e-01 6.344777308879615703e+02 1.452570533851873336e+02 5.509181987155169491e-01
6.743463516269618818e-01 7.363479931682072674e+02 2.038937882843139846e+02 5.982608156767503793e-01
7.499293890899855208e-01 8.452864227193537090e+02 2.717599804370789798e+02 6.456034326379838095e-01
8.255124265530090488e-01 9.615510971337643014e+02 3.496985438251105052e+02 6.929460495992172397e-01
9.010954640160326878e-01 1.085432696110349752e+03 4.386124997341008793e+02 7.402886665604506700e-01
9.766785014790563269e-01 1.217115825553064724e+03 5.281758600598104749e+02 6.255652853464963581e-01
1.052261538942079966e+00 1.355273425584866573e+03 6.053077932618418799e+02 4.954473886756326495e-01
1.127844576405103494e+00 1.498436424937927313e+03 6.686997376655782546e+02 3.925562317019561931e-01
1.203427613868127022e+00 1.645601448661357153e+03 7.286967758485842523e+02 4.223574492947917425e-01
1.279010651331150772e+00 1.796721853191464106e+03 7.948112666020559800e+02 4.521586668876273474e-01
1.354593688794174078e+00 1.951928151751910264e+03 8.669506441491770374e+02 4.770416800859530460e-01
1.430176726257197828e+00 2.111305624047456604e+03 9.438786033830616589e+02 4.881851401482305008e-01
1.505759763720221578e+00 2.274849350482024875e+03 1.024640083462126768e+03 4.993286002105079002e-01
1.581342801183244884e+00 2.442544703514183311e+03 1.109320540719107839e+03 5.104720602727852441e-01
1.656925838646268634e+00 2.614382600628678119e+03 1.198007807314363845e+03 5.216155203350627545e-01
1.732508876109292384e+00 2.790358850675152098e+03 1.290791993087834953e+03 5.327589803973401539e-01
1.808091913572315690e+00 2.970473610688196914e+03 1.387765410644081840e+03 5.439024404596174422e-01
1.883674951035339440e+00 3.154730930922305561e+03 1.489022518772888134e+03 5.550459005218949526e-01
1.959257988498363190e+00 3.343138371034549436e+03 1.594659880500958479e+03 5.661893605841723520e-01
2.034841025961386496e+00 3.535706674179598849e+03 1.704776132939979334e+03 5.773328206464497514e-01
2.110424063424410246e+00 3.732449488643327641e+03 1.819471966738788979e+03 5.884762807087271508e-01
