# density  energy_density  pressure   sound_speed_squared  [All in nuclear units]
2.720000000000000022e-14 2.529924618736292620e-11 1.061056609100270887e-19 3.766610435412189122e-08
1.269999999999999890e-13 1.181251617980081254e-10 4.870113551826584858e-18 6.497781477172163475e-08
6.929999999999999754e-13 6.445728594625782745e-10 1.018299070687946017e-16 3.033770597342807186e-07
6.295000000000000137e-12 5.855111460395753757e-09 5.487150723824490656e-15 1.763710043904196507e-06
1.581000000000000150e-11 1.470523320212576141e-08 2.904239460150760759e-14 3.559434472327477622e-06
3.971999999999999958e-11 3.694456170323160790e-08 1.439340266754906811e-13 6.772854871245677111e-06
9.975999999999999982e-11 9.278976412613005154e-08 6.812143616221268841e-13 1.246890511177539320e-05
2.505999999999999928e-10 2.330928829758143313e-07 3.107749196951638608e-12 2.212095130576091967e-05
6.294000000000000186e-10 5.854398883216247602e-07 1.363250409771533549e-11 3.761981047239428883e-05
1.581000000000000021e-09 1.470619631082054101e-06 5.726014178088476303e-11 6.095350986710739404e-05
3.971999999999999932e-09 3.694861084648016046e-06 2.210019573374265380e-10 8.628023653304385055e-05
5.000000000000000105e-09 4.651201787816927976e-06 3.071485916280120014e-10 9.387863480799757518e-05
9.975999999999999465e-09 9.280587964640925786e-06 8.385361004129998845e-10 1.356922228656245837e-04
1.989999999999999952e-08 1.851419242998081003e-05 2.287763168863418088e-09 1.782101978513718314e-04
3.972999999999999908e-08 3.696699295748789187e-05 6.061583099087538954e-09 2.308134738384234820e-04
7.925999999999999637e-08 7.375765469301719828e-05 1.575347858094044765e-08 2.960532096713864875e-04
1.580999999999999930e-07 1.471491184379128891e-04 3.910429618672550719e-08 3.402859755131850544e-04
1.991000000000000027e-07 1.853209783927820692e-04 5.252045687899177454e-08 3.626488188833278743e-04
3.155999999999999938e-07 2.938002528823880299e-04 9.730770378831954314e-08 4.630767356912104081e-04
5.000999999999999849e-07 4.656344063839075714e-04 1.837494945860225819e-07 5.430301232045120323e-04
6.295999999999999732e-07 5.862651417037388971e-04 2.503103884558263872e-07 5.605192962670089638e-04
9.666999999999999941e-07 9.003386739730535665e-04 4.324450868778576936e-07 5.993081670211623108e-04
1.531999999999999901e-06 1.427170885631398036e-03 7.780217275717420968e-07 7.125938556504039095e-04
2.506999999999999883e-06 2.336134972129507662e-03 1.471005394641589826e-06 8.121876172121876309e-04
3.974000000000000407e-06 3.704315759716615697e-03 2.695705763844323844e-06 9.780674166779417152e-04
4.830000000000000343e-06 4.502887798316278223e-03 3.503988717694660908e-06 1.046253037768318664e-03
6.080999999999999885e-06 5.670217999231269741e-03 4.731126407333307547e-06 1.056224360839501646e-03
7.930000000000000308e-06 7.396012414119570652e-03 6.599662989063778187e-06 1.109203753630785610e-03
9.982000000000000313e-06 9.311815711689977113e-03 8.879881089227186733e-06 1.271216815433141075e-03
1.256999999999999993e-05 1.172874412604260098e-02 1.207676739913533738e-05 1.374195438212825332e-03
1.521999999999999997e-05 1.420427250933824909e-02 1.547541302213394990e-05 1.371610497379100249e-03
1.991000000000000080e-05 1.858690797761085312e-02 2.160710455847765458e-05 1.426578142835871997e-03
2.506999999999999883e-05 2.341050104039446925e-02 2.908031724375689851e-05 1.672007475975408053e-03
2.790999999999999875e-05 2.606604784714952258e-02 3.357009132255487721e-05 1.709425557744154774e-03
3.806999999999999973e-05 3.556967988784798945e-02 4.986781576435106434e-05 1.720407281314112165e-03
5.063000000000000145e-05 4.732434580343149871e-02 7.073400252905581275e-05 1.829889149838781265e-03
6.592000000000000583e-05 6.164112392498975052e-02 9.765037643900635188e-05 1.930242980462695823e-03
8.433000000000000066e-05 7.888776783401378612e-02 1.317235490470395893e-04 2.021055815200022837e-03
1.062000000000000064e-04 9.938561165478684845e-02 1.740088341640037047e-04 2.104789529260958983e-03
1.321000000000000126e-04 1.236720406455826121e-01 2.260189757651373944e-04 2.178291718403657477e-03
1.623999999999999901e-04 1.520974545104751274e-01 2.888169908545388338e-04 2.240170365918073281e-03
1.689999999999999879e-04 1.582907717069566844e-01 3.027354772999506964e-04 2.254509350360745651e-03
1.758999999999999930e-04 1.647661861691531171e-01 3.173785841705756782e-04 2.268169273277113179e-03
1.830000000000000029e-04 1.714298948183871907e-01 3.325196584577469103e-04 2.276170334580628063e-03
1.901999999999999882e-04 1.781880600978280049e-01 3.479577791899843742e-04 2.292561569242367037e-03
1.977000000000000079e-04 1.852284385240466902e-01 3.641242634600037713e-04 2.299943765467868384e-03
2.054000000000000053e-04 1.924572004474696396e-01 3.808304060475003897e-04 2.322187632288155723e-03
2.079000000000000119e-04 1.948043378760714872e-01 3.864137987380476553e-04 2.435429768083530178e-03
2.081999999999999921e-04 1.950859988578999005e-01 3.870314100985603909e-04 1.950065624557156818e-03
2.090999999999999868e-04 1.959309855029948977e-01 3.881261957135444685e-04 6.411875526909013856e-04
2.159999999999999919e-04 2.024093317906446865e-01 3.940874488768042125e-04 1.199166870571831411e-03
2.231000000000000019e-04 2.090756740932291913e-01 4.013938420547467825e-04 9.928616047829054436e-04
2.311000000000000066e-04 2.165873044433437034e-01 4.085241694843774404e-04 9.056166966301716637e-04
2.401000000000000085e-04 2.250381721984245909e-01 4.159700687886608468e-04 8.565463878902855599e-04
2.500000000000000052e-04 2.343344406330727658e-01 4.237602369176299592e-04 8.194318812157330018e-04
2.642999999999999733e-04 2.477629128650125634e-01 4.345596643180389446e-04 7.890063723638815647e-04
3.052999999999999941e-04 2.862671839140227270e-01 4.644058706720978241e-04 7.612775562167708662e-04
3.533000000000000224e-04 3.313503829113090826e-01 4.987577676308450197e-04 7.626578558207241024e-04
4.075999999999999871e-04 3.823564017794535141e-01 5.381334366106255759e-04 7.813048116943254948e-04
4.679999999999999915e-04 4.390986251953180042e-01 5.832692638200615834e-04 8.096035963157804938e-04
5.341000000000000261e-04 5.012024644415256081e-01 6.346556894078133086e-04 8.452514814113673558e-04
6.059000000000000366e-04 5.686690698184251325e-01 6.930641302632923034e-04 8.862253587289389486e-04
7.661000000000000275e-04 7.192254882508629654e-01 8.328184776562496576e-04 9.702780530519144065e-04
1.262000000000000101e-03 1.185459127778160093e+00 1.338484980802662205e-03 1.198863597978450275e-03
1.894999999999999983e-03 1.780909071169781921e+00 2.123481960401060308e-03 1.437771491635827115e-03
2.673000000000000029e-03 2.513147344746868850e+00 3.261860252001994032e-03 1.671524566936786766e-03
3.605999999999999830e-03 3.391736073717691369e+00 4.828136641022434151e-03 1.893900408978071038e-03
4.709999999999999777e-03 4.431905410739045870e+00 6.903512974832482635e-03 2.096551352830673849e-03
7.496000000000000059e-03 7.058993649504918366e+00 1.289742191321638018e-02 2.466596387205546859e-03
1.119999999999999989e-02 1.055540362104863661e+01 2.212077014004794340e-02 2.809304433764861584e-03
1.600000000000000033e-02 1.509117352747679952e+01 3.559566804390756900e-02 3.132325055719984222e-03
2.206999999999999934e-02 2.083310616724802244e+01 5.457322122755020599e-02 3.477840948757840792e-03
2.947999999999999926e-02 2.785007348564149154e+01 8.049103664263126956e-02 3.909302116317729670e-03
4.268000000000000266e-02 4.036707211535221518e+01 1.353887601042819133e-01 4.862066536253286525e-03
6.219999999999999835e-02 5.891246509830522626e+01 2.419691225623893105e-01 6.630786177272363080e-03
7.316999999999999893e-02 6.935151695866235855e+01 3.161896974764099033e-01 7.588671314871411888e-03
7.595999999999999974e-02 7.200836722020332559e+01 3.371250777904805096e-01 8.170805199905812125e-03
7.685877551020407761e-02 7.286441686089864334e+01 3.442165309544657492e-01 8.397040278271861863e-03
7.775755102040816935e-02 7.372055060467782539e+01 3.515097706083116780e-01 8.640566755423836898e-03
7.865632653061224722e-02 7.457676989554119018e+01 3.590193329900188690e-01 8.900634491348095173e-03
7.955510204081632508e-02 7.543307630697901800e+01 3.667591185907187468e-01 9.176493346031008511e-03
8.045387755102040295e-02 7.628947153039952411e+01 3.747423920744854531e-01 9.467393179458936589e-03
8.135265306122449469e-02 7.714595736407262905e+01 3.829817821940597056e-01 9.772583851618251230e-03
8.225142857142857256e-02 7.800253570256167279e+01 3.914892816988048696e-01 1.009131522249531038e-02
8.315020408163265042e-02 7.885920852661564595e+01 4.002762472316194753e-01 1.042283715207647718e-02
8.404897959183672829e-02 7.971597789349807783e+01 4.093533992118986720e-01 1.076639950034812172e-02
8.494775510204082003e-02 8.057284592772725773e+01 4.187308217019875545e-01 1.112125212729660889e-02
8.584653061224489790e-02 8.142981481220752471e+01 4.284179622548892064e-01 1.148664489290829663e-02
8.674530612244897576e-02 8.228688677973026699e+01 4.384236317412944506e-01 1.186182765716955329e-02
8.764408163265305363e-02 8.314406410482497733e+01 4.487560041542767997e-01 1.224605028006674201e-02
8.854285714285714537e-02 8.400134909594245869e+01 4.594226163902625504e-01 1.263856262158623810e-02
8.944163265306122323e-02 8.485874408795362456e+01 4.704303680051273862e-01 1.303861454171438908e-02
9.034040816326530110e-02 8.571625143494644306e+01 4.817855209445047748e-01 1.344545590043757025e-02
9.123918367346939284e-02 8.657387350330741072e+01 4.934936992475993378e-01 1.385833655774214301e-02
9.213795918367347071e-02 8.743161266507216567e+01 5.055598887240053685e-01 1.427650637361447053e-02
9.303673469387754857e-02 8.828947129153254991e+01 5.179884366032182497e-01 1.469921520804091594e-02
9.393551020408162644e-02 8.914745174708684772e+01 5.307830511566988818e-01 1.512571292100785281e-02
9.483428571428570431e-02 9.000555638332214414e+01 5.439468012925245954e-01 1.555524937250163560e-02
9.573306122448979605e-02 9.086378753331663916e+01 5.574821161228101785e-01 1.598707442250864308e-02
9.663183673469387391e-02 9.172214750615182766e+01 5.713907845042325295e-01 1.642043793101521931e-02
9.753061224489795178e-02 9.258063858162482518e+01 5.856739545521335577e-01 1.685458975800774306e-02
9.842938775510204352e-02 9.343926300515015271e+01 6.003321331287988505e-01 1.728877976347258094e-02
9.932816326530612139e-02 9.429802298284411677e+01 6.153651853066407496e-01 1.772225780739608916e-02
1.002269387755101993e-01 9.515692067678094190e+01 6.307723338071287156e-01 1.815427374976462740e-02
1.011257142857142910e-01 9.601595820041511331e+01 6.465521584164148905e-01 1.858407745056457963e-02
1.020244897959183689e-01 9.687513761415999625e+01 6.627025953787130108e-01 1.901091876978229511e-02
1.029232653061224467e-01 9.773446092111763051e+01 6.792209367685860810e-01 1.943404756740413353e-02
1.038220408163265246e-01 9.859393006295205453e+01 6.961038298433870342e-01 1.985271370341647537e-02
1.047208163265306025e-01 9.945354691589925267e+01 7.133472763771899761e-01 2.026616703780567338e-02
1.056195918367346942e-01 1.003133132869089081e+02 7.309466319776323218e-01 2.067365743055810112e-02
1.065183673469387721e-01 1.011732309099115383e+02 7.488966053871644046e-01 2.107443474166011826e-02
1.074171428571428499e-01 1.020333014422051718e+02 7.671912577702870717e-01 2.146774883109808796e-02
1.083159183673469417e-01 1.028935264609574460e+02 7.858240019884185079e-01 2.185284955885838029e-02
1.092146938775510195e-01 1.037539074598174835e+02 8.047876018641088036e-01 2.222898678492735147e-02
1.101134693877550974e-01 1.046144458456333979e+02 8.240741714363870596e-01 2.259541036929137159e-02
1.110122448979591891e-01 1.054751429352708954e+02 8.436751742090780048e-01 2.295137017193681767e-02
1.119110204081632531e-01 1.063359999525280415e+02 8.635814223939950462e-01 2.329611605285002163e-02
1.128097959183673449e-01 1.071970180251441889e+02 8.837830761509736233e-01 2.362889787201738132e-02
1.137085714285714227e-01 1.080581981818976658e+02 9.042696428267481545e-01 2.394896548942523559e-02
1.146073469387755006e-01 1.089195413497886591e+02 9.250299761947524679e-01 2.425556876505997189e-02
1.155061224489795924e-01 1.097810483513054010e+02 9.460522756979492520e-01 2.454795755890793948e-02
1.164048979591836702e-01 1.106427199017691549e+02 9.673240856968549073e-01 2.482538173095550846e-02
1.173036734693877481e-01 1.115045566067554006e+02 9.888322947249732486e-01 2.508709114118903849e-02
1.182024489795918398e-01 1.123665589595882608e+02 1.010563134753883041e+00 2.533233564959490314e-02
1.191012244897959177e-01 1.132287273389059408e+02 1.032502180470277420e+00 2.556036511615945861e-02
1.199999999999999956e-01 1.140910620062940950e+02 1.054634348567293323e+00 2.577042940086907499e-02
1.215661056511125604e-01 1.155940679804179751e+02 1.093620561057424556e+00 2.610718606786737936e-02
1.231322113022251252e-01 1.170975796208099382e+02 1.133137700561148042e+00 2.645922835154595684e-02
1.246983169533376901e-01 1.186015973982700302e+02 1.173209393896353037e+00 2.682692337062068944e-02
1.262644226044502549e-01 1.201061220721464764e+02 1.213859847383919277e+00 2.721063208635177838e-02
1.278305282555628197e-01 1.216111546867366258e+02 1.255113838772213608e+00 2.761070937673205938e-02
1.293966339066753846e-01 1.231166965677654588e+02 1.296996709297251416e+00 2.802750410434069403e-02
1.309627395577879772e-01 1.246227493189390714e+02 1.339534355870517945e+00 2.846135917808419527e-02
1.325288452089005420e-01 1.261293148185712312e+02 1.382753223386671282e+00 2.891261160904421562e-02
1.340949508600131068e-01 1.276363952162781032e+02 1.426680297143589238e+00 2.938159256064144451e-02
1.356610565111256717e-01 1.291439929297405058e+02 1.471343095367411591e+00 2.986862739332006578e-02
1.372271621622382365e-01 1.306521106415288784e+02 1.516769661835467353e+00 3.037403570394994409e-02
1.387932678133508013e-01 1.321607512959905080e+02 1.562988558590160393e+00 3.089813136013765810e-02
1.403593734644633662e-01 1.336699180961948628e+02 1.610028858737088786e+00 3.144122252963001823e-02
1.419254791155759310e-01 1.351796145009356280e+02 1.657920139320860686e+00 3.200361170498934593e-02
1.434915847666884958e-01 1.366898442217866432e+02 1.706692474272247351e+00 3.258559572371141910e-02
1.450576904178010607e-01 1.382006112202101917e+02 1.756376427420490050e+00 3.318746578395326274e-02
1.466237960689136255e-01 1.397119197047147452e+02 1.807003045564741894e+00 3.380950745603054919e-02
1.481899017200261903e-01 1.412237741280600858e+02 1.858603851598783718e+00 3.445200068983982761e-02
1.497560073711387552e-01 1.427361791845087851e+02 1.911210837683307684e+00 3.511521981835510897e-02
1.513221130222513477e-01 1.442491398071212814e+02 1.964856458460205957e+00 3.579943355734285099e-02
1.528882186733639126e-01 1.457626611650928794e+02 2.019573624303436343e+00 3.650490500143507150e-02
1.544543243244764774e-01 1.472767486611307106e+02 2.075395694601185781e+00 3.723189161669476083e-02
1.560204299755890422e-01 1.487914079288690345e+02 2.132356471064149162e+00 3.798064522980366259e-02
1.575865356267016071e-01 1.503066448303222273e+02 2.190490191054889291e+00 3.875141201399767699e-02
1.591526412778141719e-01 1.518224654533714215e+02 2.249831520933344375e+00 3.954443247187112292e-02
1.607187469289267368e-01 1.533388761092854509e+02 2.310415549413655345e+00 4.035994141516700828e-02
1.622848525800393016e-01 1.548558833302736844e+02 2.372277780927596336e+00 4.119816794166594742e-02
1.638509582311518664e-01 1.563734938670692998e+02 2.435454128989982259e+00 4.205933540928377679e-02
1.654170638822644313e-01 1.578917146865412064e+02 2.499980909561521969e+00 4.294366140748290955e-02
1.669831695333769961e-01 1.594105529693336507e+02 2.565894834404669922e+00 4.385135772610015276e-02
1.685492751844895887e-01 1.609300161075327367e+02 2.633233004428120694e+00 4.478263032169003260e-02
1.701153808356021258e-01 1.624501117023561960e+02 2.702032903015644916e+00 4.573767928147892681e-02
1.716814864867147183e-01 1.639708475618689079e+02 2.772332389335083747e+00 4.671669878502387324e-02
1.732475921378272832e-01 1.654922316987182001e+02 2.844169691623312346e+00 4.771987706366496301e-02
1.748136977889398480e-01 1.670142723278923711e+02 2.917583400443144903e+00 4.874739635785976799e-02
1.763798034400524128e-01 1.685369778644975725e+02 2.992612461908118693e+00 4.979943287248353445e-02
1.779459090911649777e-01 1.700603569215539608e+02 3.069296170871219864e+00 5.087615673017813894e-02
1.795120147422775425e-01 1.715844183078092726e+02 3.147674164073630543e+00 5.197773192282965221e-02
1.810781203933901073e-01 1.731091710255687133e+02 3.227786413249639885e+00 5.310431626125158150e-02
1.826442260445026722e-01 1.746346242685394827e+02 3.309673218183904364e+00 5.425606132315086150e-02
1.842103316956152370e-01 1.761607874196909052e+02 3.393375199717285629e+00 5.543311239944873070e-02
1.857764373467278296e-01 1.776876700491260976e+02 3.478933292697534707e+00 5.663560843902921971e-02
1.873425429978403667e-01 1.792152819119668266e+02 3.566388738871117514e+00 5.786368199198516776e-02
1.889086486489529593e-01 1.807436329462487947e+02 3.655783079712556560e+00 5.911745915143010871e-02
1.904747543000654963e-01 1.822727332708272172e+02 3.747158149187590492e+00 6.039705949394232748e-02
1.920408599511780889e-01 1.838025931832918047e+02 3.840556066446642713e+00 6.170259601870747845e-02
1.936069656022906260e-01 1.853332231578891367e+02 3.936019228444926910e+00 6.303417508542258352e-02
1.951730712534032186e-01 1.868646338434531913e+02 4.033590302485740686e+00 6.439189635102497700e-02
1.967391769045157834e-01 1.883968360613411619e+02 4.133312218683319550e+00 6.577585270530689199e-02
2.743567447227909795e-01 2.654126691419419899e+02 1.026285023865373702e+01 9.312574469177592462e-02
3.519743125410661477e-01 3.445304574372389652e+02 1.913661582672595785e+01 1.307370055586675739e-01
4.295918803593413715e-01 4.264892639924870537e+02 3.834398069449694191e+01 3.325614580458830516e-01
5.072094481776164843e-01 5.133629818628573958e+02 7.642437620992348002e+01 5.343859105330982517e-01
5.848270159958917080e-01 6.075192285343231333e+02 1.369083365633863423e+02 7.362103630203137294e-01
6.624445838141669318e-01 7.111865038516617687e+02 2.185221921966405318e+02 8.307021869019732829e-01
7.400621516324420446e-01 8.253885890701664039e+02 3.122778953735672758e+02 8.131277348263519222e-01
8.176797194507172684e-01 9.497199184456120520e+02 4.085956948652604979e+02 7.415610084621372389e-01
8.952972872689924921e-01 1.083101456603043061e+03 5.023624029072077519e+02 6.687366680445543388e-01
9.729148550872676049e-01 1.224428463033627622e+03 5.914869348776526294e+02 5.959123276269716607e-01
1.050532422905542829e+00 1.372621401936952680e+03 6.742047912605395368e+02 5.230879872093887606e-01
1.128149990723817941e+00 1.526639724287039598e+03 7.490055174807810090e+02 4.502636467918061380e-01
1.205767558542093054e+00 1.685608136901069429e+03 8.205991450937344780e+02 4.505765615623740783e-01
1.283385126360368167e+00 1.849282577453537897e+03 8.958880711396861898e+02 4.691270692291588662e-01
1.361002694178643502e+00 2.017668109072913012e+03 9.764679932190596219e+02 4.876775768959437651e-01
1.438620261996918614e+00 2.190803187095320936e+03 1.062532835093998756e+03 5.062280845627284975e-01
1.516237829815193727e+00 2.368732732448478146e+03 1.154281996244625589e+03 5.247785922295133965e-01
1.593855397633469062e+00 2.551507420079468829e+03 1.251920451210951569e+03 5.433290998962981844e-01
1.671472965451744175e+00 2.739183111475861551e+03 1.355658862690387423e+03 5.618796075630829723e-01
1.749090533270019288e+00 2.931820398316540832e+03 1.465713705559835489e+03 5.804301152298678712e-01
1.826708101088294622e+00 3.129484232981902551e+03 1.582307399852050821e+03 5.989806228966526591e-01
1.904325668906569735e+00 3.332243627784346245e+03 1.705668451302824906e+03 6.175311305634374470e-01
1.981943236724844848e+00 3.540171409177534770e+03 1.836031598492397052e+03 6.360816382302223460e-01
2.059560804543120405e+00 3.753344016405573257e+03 1.973637965890846772e+03 6.546321458970072449e-01
