# density  energy_density  pressure   sound_speed_squared  [All in nuclear units]
2.720000000000000022e-14 2.529924618736292620e-11 1.061056609100270887e-19 3.766610435412189122e-08
1.269999999999999890e-13 1.181251617980081254e-10 4.870113551826584858e-18 6.497781477172163475e-08
6.929999999999999754e-13 6.445728594625782745e-10 1.018299070687946017e-16 3.033770597342807186e-07
6.295000000000000137e-12 5.855111460395753757e-09 5.487150723824490656e-15 1.763710043904196507e-06
1.581000000000000150e-11 1.470523320212576141e-08 2.904239460150760759e-14 3.559434472327477622e-06
3.971999999999999958e-11 3.694456170323160790e-08 1.439340266754906811e-13 6.772854871245677111e-06
9.975999999999999982e-11 9.278976412613005154e-08 6.812143616221268841e-13 1.246890511177539320e-05
2.505999999999999928e-10 2.330928829758143313e-07 3.107749196951638608e-12 2.212095130576091967e-05
6.294000000000000186e-10 5.854398883216247602e-07 1.363250409771533549e-11 3.761981047239428883e-05
1.581000000000000021e-09 1.470619631082054101e-06 5.726014178088476303e-11 6.095350986710739404e-05
3.971999999999999932e-09 3.694861084648016046e-06 2.210019573374265380e-10 8.628023653304385055e-05
5.000000000000000105e-09 4.651201787816927976e-06 3.071485916280120014e-10 9.387863480799757518e-05
9.975999999999999465e-09 9.280587964640925786e-06 8.385361004129998845e-10 1.356922228656245837e-04
1.989999999999999952e-08 1.851419242998081003e-05 2.287763168863418088e-09 1.782101978513718314e-04
3.972999999999999908e-08 3.696699295748789187e-05 6.061583099087538954e-09 2.308134738384234820e-04
7.925999999999999637e-08 7.375765469301719828e-05 1.575347858094044765e-08 2.960532096713864875e-04
1.580999999999999930e-07 1.471491184379128891e-04 3.910429618672550719e-08 3.402859755131850544e-04
1.991000000000000027e-07 1.853209783927820692e-04 5.252045687899177454e-08 3.626488188833278743e-04
3.155999999999999938e-07 2.938002528823880299e-04 9.730770378831954314e-08 4.630767356912104081e-04
5.000999999999999849e-07 4.656344063839075714e-04 1.837494945860225819e-07 5.430301232045120323e-04
6.295999999999999732e-07 5.862651417037388971e-04 2.503103884558263872e-07 5.605192962670089638e-04
9.666999999999999941e-07 9.003386739730535665e-04 4.324450868778576936e-07 5.993081670211623108e-04
1.531999999999999901e-06 1.427170885631398036e-03 7.780217275717420968e-07 7.125938556504039095e-04
2.506999999999999883e-06 2.336134972129507662e-03 1.471005394641589826e-06 8.121876172121876309e-04
3.974000000000000407e-06 3.704315759716615697e-03 2.695705763844323844e-06 9.780674166779417152e-04
4.830000000000000343e-06 4.502887798316278223e-03 3.503988717694660908e-06 1.046253037768318664e-03
6.080999999999999885e-06 5.670217999231269741e-03 4.731126407333307547e-06 1.056224360839501646e-03
7.930000000000000308e-06 7.396012414119570652e-03 6.599662989063778187e-06 1.109203753630785610e-03
9.982000000000000313e-06 9.311815711689977113e-03 8.879881089227186733e-06 1.271216815433141075e-03
1.256999999999999993e-05 1.172874412604260098e-02 1.207676739913533738e-05 1.374195438212825332e-03
1.521999999999999997e-05 1.420427250933824909e-02 1.547541302213394990e-05 1.371610497379100249e-03
1.991000000000000080e-05 1.858690797761085312e-02 2.160710455847765458e-05 1.426578142835871997e-03
2.506999999999999883e-05 2.341050104039446925e-02 2.908031724375689851e-05 1.672007475975408053e-03
2.790999999999999875e-05 2.606604784714952258e-02 3.357009132255487721e-05 1.709425557744154774e-03
3.806999999999999973e-05 3.556967988784798945e-02 4.986781576435106434e-05 1.720407281314112165e-03
5.063000000000000145e-05 4.732434580343149871e-02 7.073400252905581275e-05 1.829889149838781265e-03
6.592000000000000583e-05 6.164112392498975052e-02 9.765037643900635188e-05 1.930242980462695823e-03
8.433000000000000066e-05 7.888776783401378612e-02 1.317235490470395893e-04 2.021055815200022837e-03
1.062000000000000064e-04 9.938561165478684845e-02 1.740088341640037047e-04 2.104789529260958983e-03
1.321000000000000126e-04 1.236720406455826121e-01 2.260189757651373944e-04 2.178291718403657477e-03
1.623999999999999901e-04 1.520974545104751274e-01 2.888169908545388338e-04 2.240170365918073281e-03
1.689999999999999879e-04 1.582907717069566844e-01 3.027354772999506964e-04 2.254509350360745651e-03
1.758999999999999930e-04 1.647661861691531171e-01 3.173785841705756782e-04 2.268169273277113179e-03
1.830000000000000029e-04 1.714298948183871907e-01 3.325196584577469103e-04 2.276170334580628063e-03
1.901999999999999882e-04 1.781880600978280049e-01 3.479577791899843742e-04 2.292561569242367037e-03
1.977000000000000079e-04 1.852284385240466902e-01 3.641242634600037713e-04 2.299943765467868384e-03
2.054000000000000053e-04 1.924572004474696396e-01 3.808304060475003897e-04 2.322187632288155723e-03
2.079000000000000119e-04 1.948043378760714872e-01 3.864137987380476553e-04 2.435429768083530178e-03
2.081999999999999921e-04 1.950859988578999005e-01 3.870314100985603909e-04 1.950065624557156818e-03
2.090999999999999868e-04 1.959309855029948977e-01 3.881261957135444685e-04 6.411875526909013856e-04
2.159999999999999919e-04 2.024093317906446865e-01 3.940874488768042125e-04 1.199166870571831411e-03
2.231000000000000019e-04 2.090756740932291913e-01 4.013938420547467825e-04 9.928616047829054436e-04
2.311000000000000066e-04 2.165873044433437034e-01 4.085241694843774404e-04 9.056166966301716637e-04
2.401000000000000085e-04 2.250381721984245909e-01 4.159700687886608468e-04 8.565463878902855599e-04
2.500000000000000052e-04 2.343344406330727658e-01 4.237602369176299592e-04 8.194318812157330018e-04
2.642999999999999733e-04 2.477629128650125634e-01 4.345596643180389446e-04 7.890063723638815647e-04
3.052999999999999941e-04 2.862671839140227270e-01 4.644058706720978241e-04 7.612775562167708662e-04
3.533000000000000224e-04 3.313503829113090826e-01 4.987577676308450197e-04 7.626578558207241024e-04
4.075999999999999871e-04 3.823564017794535141e-01 5.381334366106255759e-04 7.813048116943254948e-04
4.679999999999999915e-04 4.390986251953180042e-01 5.832692638200615834e-04 8.096035963157804938e-04
5.341000000000000261e-04 5.012024644415256081e-01 6.346556894078133086e-04 8.452514814113673558e-04
6.059000000000000366e-04 5.686690698184251325e-01 6.930641302632923034e-04 8.862253587289389486e-04
7.661000000000000275e-04 7.192254882508629654e-01 8.328184776562496576e-04 9.702780530519144065e-04
1.262000000000000101e-03 1.185459127778160093e+00 1.338484980802662205e-03 1.198863597978450275e-03
1.894999999999999983e-03 1.780909071169781921e+00 2.123481960401060308e-03 1.437771491635827115e-03
2.673000000000000029e-03 2.513147344746868850e+00 3.261860252001994032e-03 1.671524566936786766e-03
3.605999999999999830e-03 3.391736073717691369e+00 4.828136641022434151e-03 1.893900408978071038e-03
4.709999999999999777e-03 4.431905410739045870e+00 6.903512974832482635e-03 2.096551352830673849e-03
7.496000000000000059e-03 7.058993649504918366e+00 1.289742191321638018e-02 2.466596387205546859e-03
1.119999999999999989e-02 1.055540362104863661e+01 2.212077014004794340e-02 2.809304433764861584e-03
1.600000000000000033e-02 1.509117352747679952e+01 3.559566804390756900e-02 3.132325055719984222e-03
2.206999999999999934e-02 2.083310616724802244e+01 5.457322122755020599e-02 3.477840948757840792e-03
2.947999999999999926e-02 2.785007348564149154e+01 8.049103664263126956e-02 3.909302116317729670e-03
4.268000000000000266e-02 4.036707211535221518e+01 1.353887601042819133e-01 4.862066536253286525e-03
6.219999999999999835e-02 5.891246509830522626e+01 2.419691225623893105e-01 6.630786177272363080e-03
7.316999999999999893e-02 6.935151695866235855e+01 3.161896974764099033e-01 7.588671314871411888e-03
7.595999999999999974e-02 7.200836722020332559e+01 3.371250777904805096e-01 8.170805199905812125e-03
7.685877551020407761e-02 7.286441680882336414e+01 3.442076189948884424e-01 8.376221188387046948e-03
7.775755102040816935e-02 7.372055025902982095e+01 3.514683221732058938e-01 8.585385483128982198e-03
7.865632653061224722e-02 7.457676867925653141e+01 3.589103831320187843e-01 8.798162699883722154e-03
7.955510204081632508e-02 7.543307318847423915e+01 3.665368834812316456e-01 9.014417454403383240e-03
8.045387755102040295e-02 7.628946491454314582e+01 3.743507906054789336e-01 9.234014362440080143e-03
8.135265306122449469e-02 7.714594499263832006e+01 3.823549576332449518e-01 9.456818039745917143e-03
8.225142857142857256e-02 7.800251456374510894e+01 3.905521234036443134e-01 9.682693102073008928e-03
8.315020408163265042e-02 7.885917477321925162e+01 3.989449124308272476e-01 9.911504165173464984e-03
8.404897959183672829e-02 7.971592676940905164e+01 4.075358348659767760e-01 1.014311584479940000e-02
8.494775510204082003e-02 8.057277170233646757e+01 4.163272864568778320e-01 1.037739275670292519e-02
8.584653061224489790e-02 8.142971072243260267e+01 4.253215485050407807e-01 1.061419951663614830e-02
8.674530612244897576e-02 8.228674497932715326e+01 4.345207878203724006e-01 1.085340074035118056e-02
8.764408163265305363e-02 8.314387562068617399e+01 4.439270566733886092e-01 1.109486104360013665e-02
8.854285714285714537e-02 8.400110379109761993e+01 4.535422927449733743e-01 1.133844504213513127e-02
8.944163265306122323e-02 8.485843063100185191e+01 4.633683190736904711e-01 1.158401735170826521e-02
9.034040816326530110e-02 8.571585727566412061e+01 4.734068440006622969e-01 1.183144258807165491e-02
9.123918367346939284e-02 8.657338485418753748e+01 4.836594611120312304e-01 1.208058536697741679e-02
9.213795918367347071e-02 8.743101448856452862e+01 4.941276491790260184e-01 1.233131030417765686e-02
9.303673469387754857e-02 8.828874729276458311e+01 5.048127720956603337e-01 1.258348201542448461e-02
9.393551020408162644e-02 8.914658437185653383e+01 5.157160788140909835e-01 1.283696511647001645e-02
9.483428571428570431e-02 9.000452682116400638e+01 5.268387032776699064e-01 1.309162422306636014e-02
9.573306122448979605e-02 9.086257572545220285e+01 5.381816643517277621e-01 1.334732395096563211e-02
9.663183673469387391e-02 9.172073215814425851e+01 5.497458657521262504e-01 1.360392891591993489e-02
9.753061224489795178e-02 9.257899718056646066e+01 5.615320959716256777e-01 1.386130373368138664e-02
9.842938775510204352e-02 9.343737184122082340e+01 5.735410282041101260e-01 1.411931302000210206e-02
9.932816326530612139e-02 9.429585717508243192e+01 5.857732202667195187e-01 1.437782139063418368e-02
1.002269387755101993e-01 9.515445420292311951e+01 5.982291145199423177e-01 1.463669346132974274e-02
1.011257142857142910e-01 9.601316393065690136e+01 6.109090377857174792e-01 1.489579384784090431e-02
1.020244897959183689e-01 9.687198734870985106e+01 6.238132012636045109e-01 1.515498716591976228e-02
1.029232653061224467e-01 9.773092543140953126e+01 6.369417004450794728e-01 1.541413803131843306e-02
1.038220408163265246e-01 9.858997913639646526e+01 6.502945150260148743e-01 1.567311105978903482e-02
1.047208163265306025e-01 9.944914940405453763e+01 6.638715088174066414e-01 1.593177086708367704e-02
1.056195918367346942e-01 1.003084371569602240e+02 6.776724296544114345e-01 1.618998206895446573e-02
1.065183673469387721e-01 1.011678432993498973e+02 6.916969093037592664e-01 1.644760928115351906e-02
1.074171428571428499e-01 1.020273687166043999e+02 7.059444633696102533e-01 1.670451711943293782e-02
1.083159183673469417e-01 1.028870142747498022e+02 7.204144911979211141e-01 1.696057019954484366e-02
1.092146938775510195e-01 1.037467808199741484e+02 7.351062757793932478e-01 1.721563313724134431e-02
1.101134693877550974e-01 1.046066691781594358e+02 7.500189836510762209e-01 1.746957054827454753e-02
1.110122448979591891e-01 1.054666801544278343e+02 7.651516647966948304e-01 1.772224704839657494e-02
1.119110204081632531e-01 1.063268145327012633e+02 7.805032525457764603e-01 1.797352725335952389e-02
1.128097959183673449e-01 1.071870730752761176e+02 7.960725634716582233e-01 1.822327577891551947e-02
1.137085714285714227e-01 1.080474565224080834e+02 8.118582972884408333e-01 1.847135724081666597e-02
1.146073469387755006e-01 1.089079655919118466e+02 8.278590367469785827e-01 1.871763625481506765e-02
1.155061224489795924e-01 1.097686009787704933e+02 8.440732475299759230e-01 1.896197743666284963e-02
1.164048979591836702e-01 1.106293633547579418e+02 8.604992781462739160e-01 1.920424540211211617e-02
1.173036734693877481e-01 1.114902533680705403e+02 8.771353598244092664e-01 1.944430476691498197e-02
1.182024489795918398e-01 1.123512716429707723e+02 8.939796064055245406e-01 1.968202014682355824e-02
1.191012244897959177e-01 1.132124187794395880e+02 9.110300142357137254e-01 1.991725615758994927e-02
1.199999999999999956e-01 1.140736953528395219e+02 9.282844620578906136e-01 2.014987741496627321e-02
1.215937485225407066e-01 1.156012695100236840e+02 9.593778369079883905e-01 2.055955853479945680e-02
1.231874970450814177e-01 1.171292554113105382e+02 9.911131206008265693e-01 2.097910845217217796e-02
1.247812455676221288e-01 1.186576561347880698e+02 1.023505872329457000e+00 2.140861751691525844e-02
1.263749940901628399e-01 1.201864748796320015e+02 1.056571805555843735e+00 2.184817249843637108e-02
1.279687426127035510e-01 1.217157149634384581e+02 1.090326783043015890e+00 2.229785661029231453e-02
1.295624911352442621e-01 1.232453798196278001e+02 1.124786811926385077e+00 2.275774953288415073e-02
1.311562396577849732e-01 1.247754729949166830e+02 1.159968038821203029e+00 2.322792743435874580e-02
1.327499881803256843e-01 1.263059981468523603e+02 1.195886744963238435e+00 2.370846298979255654e-02
1.343437367028663676e-01 1.278369590414086048e+02 1.232559341379848128e+00 2.419942539873006990e-02
1.359374852254070787e-01 1.293683595506375070e+02 1.270002364088711921e+00 2.470088040114244710e-02
1.375312337479477898e-01 1.309002036503765396e+02 1.308232469321567448e+00 2.521289029186880512e-02
1.391249822704885009e-01 1.324324954180048906e+02 1.347266428770381497e+00 2.573551393359764516e-02
1.407187307930292119e-01 1.339652390302498191e+02 1.387121124853441634e+00 2.626880676844192339e-02
1.423124793155699230e-01 1.354984387610386420e+02 1.427813545998926736e+00 2.681282082815744996e-02
1.439062278381106341e-01 1.370320989793933109e+02 1.469360781943573002e+00 2.736760474305082250e-02
1.454999763606513452e-01 1.385662241473672793e+02 1.511780019044105305e+00 2.793320374962015087e-02
1.470937248831920563e-01 1.401008188180210539e+02 1.555088535599152166e+00 2.850965969696785465e-02
1.486874734057327674e-01 1.416358876334344075e+02 1.599303697179408346e+00 2.909701105202311400e-02
1.502812219282734785e-01 1.431714353227550873e+02 1.644442951963851707e+00 2.969529290360725660e-02
1.518749704508141896e-01 1.447074667002790989e+02 1.690523826079854741e+00 3.030453696537437763e-02
1.534687189733549006e-01 1.462439866635646695e+02 1.737563918945066899e+00 3.092477157765589554e-02
1.550624674958955840e-01 1.477810001915739520e+02 1.785580898608972289e+00 3.155602170823589708e-02
1.566562160184363228e-01 1.493185123428453949e+02 1.834592497092061070e+00 3.219830895208186661e-02
1.582499645409770062e-01 1.508565282536916641e+02 1.884616505720551283e+00 3.285165153005325384e-02
1.598437130635177450e-01 1.523950531364235701e+02 1.935670770454673395e+00 3.351606428660867248e-02
1.614374615860584283e-01 1.539340922775984097e+02 1.987773187208462078e+00 3.419155868652979519e-02
1.630312101085991394e-01 1.554736510362907609e+02 2.040941697159120327e+00 3.487814281067981581e-02
1.646249586311398505e-01 1.570137348423852757e+02 2.095194282043924883e+00 3.557582135081045066e-02
1.662187071536805616e-01 1.585543491948903068e+02 2.150548959442744934e+00 3.628459560343236245e-02
1.678124556762212727e-01 1.600954996602702636e+02 2.207023778044192142e+00 3.700446346276003301e-02
1.694062041987619838e-01 1.616371918707964426e+02 2.264636812893456863e+00 3.773541941274208972e-02
1.709999527213026949e-01 1.631794315229154506e+02 2.323406160619875038e+00 3.847745451818652962e-02
1.725937012438434059e-01 1.647222243756340276e+02 2.383349934642278622e+00 3.923055641498800206e-02
1.741874497663841170e-01 1.662655762489179949e+02 2.444486260350180462e+00 3.999470929946434550e-02
1.757811982889248281e-01 1.678094930221069774e+02 2.506833270258836954e+00 4.076989391680731906e-02
1.773749468114655392e-01 1.693539806323418304e+02 2.570409099136237607e+00 4.155608754865164345e-02
1.789686953340062503e-01 1.708990450730049986e+02 2.635231879100053742e+00 4.235326399976554329e-02
1.805624438565469614e-01 1.724446923921717314e+02 2.701319734682578133e+00 4.316139358386443525e-02
1.821561923790876447e-01 1.739909286910741741e+02 2.768690777861675834e+00 4.398044310854840044e-02
1.837499409016283836e-01 1.755377601225734452e+02 2.837363103055760227e+00 4.481037585936392675e-02
1.853436894241690669e-01 1.770851928896424283e+02 2.907354782080768363e+00 4.565115158298766601e-02
1.869374379467098057e-01 1.786332332438570063e+02 2.978683859067165596e+00 4.650272646953065164e-02
1.885311864692504891e-01 1.801818874838948830e+02 3.051368345334880328e+00 4.736505313395996536e-02
1.901249349917912002e-01 1.817311619540422214e+02 3.125426214224192645e+00 4.823808059663334952e-02
1.917186835143319112e-01 1.832810630427059380e+02 3.200875395880438568e+00 4.912175426294195651e-02
1.933124320368726223e-01 1.848315971809336133e+02 3.277733771990495981e+00 5.001601590205583675e-02
1.949061805594133334e-01 1.863827708409358479e+02 3.356019170468913959e+00 5.092080362476510136e-02
1.964999290819540445e-01 1.879345905346165466e+02 3.435749360091563176e+00 5.183605186040973062e-02
1.980936776044947556e-01 1.894870628121046252e+02 3.516942045074652690e+00 5.276169133288929197e-02
2.756836025513418331e-01 2.676245951711580346e+02 2.142570038512226560e+01 3.912498064219206984e-01
3.532735274981888551e-01 3.532625211861913499e+02 5.483307472121380499e+01 3.903336360866820898e-01
4.308634524450358771e-01 4.466028004184879023e+02 9.118243948516517605e+01 3.894174657514434812e-01
5.084533773918828992e-01 5.467453330421064948e+02 1.301024367723557589e+02 3.885012954162049281e-01
5.860433023387299212e-01 6.530183206986386040e+02 1.713162683464194345e+02 3.875851250809663195e-01
6.636332272855770542e-01 7.648966121679864045e+02 2.146073239298750082e+02 3.866689547457277665e-01
7.412231522324241872e-01 8.820924525316631843e+02 2.640326076523351730e+02 4.548391750421257873e-01
8.188130771792712093e-01 1.005039386646892012e+03 3.261839074208006650e+02 5.528030514487181080e-01
8.964030021261182313e-01 1.134577468773198689e+03 4.043946190590746710e+02 6.507669278553105396e-01
9.739929270729652533e-01 1.271602782143812419e+03 5.005899064117196531e+02 7.487308042619028603e-01
1.051582852019812275e+00 1.417020788895842543e+03 6.152785930613491701e+02 8.247668062649096132e-01
1.129172776966659297e+00 1.571511600773575765e+03 7.410271326380150185e+02 8.044019476772793498e-01
1.206762701913506541e+00 1.734782895142588359e+03 8.706077256046216917e+02 7.840370890896490863e-01
1.284352626860353563e+00 1.906496177335753600e+03 1.003400770380563813e+03 7.636722305020189339e-01
1.361942551807200585e+00 2.086317142559711556e+03 1.138810470143886960e+03 7.433073719143887814e-01
1.439532476754047607e+00 2.273920564362043478e+03 1.276816032808012096e+03 7.285881716946587261e-01
1.517122401700894629e+00 2.469038423582499490e+03 1.417493308727729300e+03 7.139748059626155330e-01
1.594712326647741651e+00 2.671413000018798812e+03 1.560450023948524404e+03 6.993614402305723399e-01
1.672302251594588673e+00 2.880792543959943032e+03 1.705299766310297173e+03 6.847480744985290357e-01
1.749892176541435695e+00 3.096931091496452609e+03 1.851671082907620303e+03 6.701347087664859536e-01
1.827482101488282940e+00 3.319588348810193565e+03 1.999207065108347024e+03 6.555213430344426495e-01
1.905072026435129962e+00 3.548529578711152681e+03 2.147564943486723678e+03 6.409079773023994564e-01
1.982661951381976984e+00 3.783525489362536973e+03 2.296415692436398786e+03 6.262946115703562633e-01
2.060251876328823784e+00 4.024352125140189401e+03 2.445443644237774151e+03 6.116812458383131812e-01
