# density  energy_density  pressure   sound_speed_squared  [All in nuclear units]
2.720000000000000022e-14 2.529924618736292620e-11 1.061056609100270887e-19 3.766610435412189122e-08
1.269999999999999890e-13 1.181251617980081254e-10 4.870113551826584858e-18 6.497781477172163475e-08
6.929999999999999754e-13 6.445728594625782745e-10 1.018299070687946017e-16 3.033770597342807186e-07
6.295000000000000137e-12 5.855111460395753757e-09 5.487150723824490656e-15 1.763710043904196507e-06
1.581000000000000150e-11 1.470523320212576141e-08 2.904239460150760759e-14 3.559434472327477622e-06
3.971999999999999958e-11 3.694456170323160790e-08 1.439340266754906811e-13 6.772854871245677111e-06
9.975999999999999982e-11 9.278976412613005154e-08 6.812143616221268841e-13 1.246890511177539320e-05
2.505999999999999928e-10 2.330928829758143313e-07 3.107749196951638608e-12 2.212095130576091967e-05
6.294000000000000186e-10 5.854398883216247602e-07 1.363250409771533549e-11 3.761981047239428883e-05
1.581000000000000021e-09 1.470619631082054101e-06 5.726014178088476303e-11 6.095350986710739404e-05
3.971999999999999932e-09 3.694861084648016046e-06 2.210019573374265380e-10 8.628023653304385055e-05
5.000000000000000105e-09 4.651201787816927976e-06 3.071485916280120014e-10 9.387863480799757518e-05
9.975999999999999465e-09 9.280587964640925786e-06 8.385361004129998845e-10 1.356922228656245837e-04
1.989999999999999952e-08 1.851419242998081003e-05 2.287763168863418088e-09 1.782101978513718314e-04
3.972999999999999908e-08 3.696699295748789187e-05 6.061583099087538954e-09 2.308134738384234820e-04
7.925999999999999637e-08 7.375765469301719828e-05 1.575347858094044765e-08 2.960532096713864875e-04
1.580999999999999930e-07 1.471491184379128891e-04 3.910429618672550719e-08 3.402859755131850544e-04
1.991000000000000027e-07 1.853209783927820692e-04 5.252045687899177454e-08 3.626488188833278743e-04
3.155999999999999938e-07 2.938002528823880299e-04 9.730770378831954314e-08 4.630767356912104081e-04
5.000999999999999849e-07 4.656344063839075714e-04 1.837494945860225819e-07 5.430301232045120323e-04
6.295999999999999732e-07 5.862651417037388971e-04 2.503103884558263872e-07 5.605192962670089638e-04
9.666999999999999941e-07 9.003386739730535665e-04 4.324450868778576936e-07 5.993081670211623108e-04
1.531999999999999901e-06 1.427170885631398036e-03 7.780217275717420968e-07 7.125938556504039095e-04
2.506999999999999883e-06 2.336134972129507662e-03 1.471005394641589826e-06 8.121876172121876309e-04
3.974000000000000407e-06 3.704315759716615697e-03 2.695705763844323844e-06 9.780674166779417152e-04
4.830000000000000343e-06 4.502887798316278223e-03 3.503988717694660908e-06 1.046253037768318664e-03
6.080999999999999885e-06 5.670217999231269741e-03 4.731126407333307547e-06 1.056224360839501646e-03
7.930000000000000308e-06 7.396012414119570652e-03 6.599662989063778187e-06 1.109203753630785610e-03
9.982000000000000313e-06 9.311815711689977113e-03 8.879881089227186733e-06 1.271216815433141075e-03
1.256999999999999993e-05 1.172874412604260098e-02 1.207676739913533738e-05 1.374195438212825332e-03
1.521999999999999997e-05 1.420427250933824909e-02 1.547541302213394990e-05 1.371610497379100249e-03
1.991000000000000080e-05 1.858690797761085312e-02 2.160710455847765458e-05 1.426578142835871997e-03
2.506999999999999883e-05 2.341050104039446925e-02 2.908031724375689851e-05 1.672007475975408053e-03
2.790999999999999875e-05 2.606604784714952258e-02 3.357009132255487721e-05 1.709425557744154774e-03
3.806999999999999973e-05 3.556967988784798945e-02 4.986781576435106434e-05 1.720407281314112165e-03
5.063000000000000145e-05 4.732434580343149871e-02 7.073400252905581275e-05 1.829889149838781265e-03
6.592000000000000583e-05 6.164112392498975052e-02 9.765037643900635188e-05 1.930242980462695823e-03
8.433000000000000066e-05 7.888776783401378612e-02 1.317235490470395893e-04 2.021055815200022837e-03
1.062000000000000064e-04 9.938561165478684845e-02 1.740088341640037047e-04 2.104789529260958983e-03
1.321000000000000126e-04 1.236720406455826121e-01 2.260189757651373944e-04 2.178291718403657477e-03
1.623999999999999901e-04 1.520974545104751274e-01 2.888169908545388338e-04 2.240170365918073281e-03
1.689999999999999879e-04 1.582907717069566844e-01 3.027354772999506964e-04 2.254509350360745651e-03
1.758999999999999930e-04 1.647661861691531171e-01 3.173785841705756782e-04 2.268169273277113179e-03
1.830000000000000029e-04 1.714298948183871907e-01 3.325196584577469103e-04 2.276170334580628063e-03
1.901999999999999882e-04 1.781880600978280049e-01 3.479577791899843742e-04 2.292561569242367037e-03
1.977000000000000079e-04 1.852284385240466902e-01 3.641242634600037713e-04 2.299943765467868384e-03
2.054000000000000053e-04 1.924572004474696396e-01 3.808304060475003897e-04 2.322187632288155723e-03
2.079000000000000119e-04 1.948043378760714872e-01 3.864137987380476553e-04 2.435429768083530178e-03
2.081999999999999921e-04 1.950859988578999005e-01 3.870314100985603909e-04 1.950065624557156818e-03
2.090999999999999868e-04 1.959309855029948977e-01 3.881261957135444685e-04 6.411875526909013856e-04
2.159999999999999919e-04 2.024093317906446865e-01 3.940874488768042125e-04 1.199166870571831411e-03
2.231000000000000019e-04 2.090756740932291913e-01 4.013938420547467825e-04 9.928616047829054436e-04
2.311000000000000066e-04 2.165873044433437034e-01 4.085241694843774404e-04 9.056166966301716637e-04
2.401000000000000085e-04 2.250381721984245909e-01 4.159700687886608468e-04 8.565463878902855599e-04
2.500000000000000052e-04 2.343344406330727658e-01 4.237602369176299592e-04 8.194318812157330018e-04
2.642999999999999733e-04 2.477629128650125634e-01 4.345596643180389446e-04 7.890063723638815647e-04
3.052999999999999941e-04 2.862671839140227270e-01 4.644058706720978241e-04 7.612775562167708662e-04
3.533000000000000224e-04 3.313503829113090826e-01 4.987577676308450197e-04 7.626578558207241024e-04
4.075999999999999871e-04 3.823564017794535141e-01 5.381334366106255759e-04 7.813048116943254948e-04
4.679999999999999915e-04 4.390986251953180042e-01 5.832692638200615834e-04 8.096035963157804938e-04
5.341000000000000261e-04 5.012024644415256081e-01 6.346556894078133086e-04 8.452514814113673558e-04
6.059000000000000366e-04 5.686690698184251325e-01 6.930641302632923034e-04 8.862253587289389486e-04
7.661000000000000275e-04 7.192254882508629654e-01 8.328184776562496576e-04 9.702780530519144065e-04
1.262000000000000101e-03 1.185459127778160093e+00 1.338484980802662205e-03 1.198863597978450275e-03
1.894999999999999983e-03 1.780909071169781921e+00 2.123481960401060308e-03 1.437771491635827115e-03
2.673000000000000029e-03 2.513147344746868850e+00 3.261860252001994032e-03 1.671524566936786766e-03
3.605999999999999830e-03 3.391736073717691369e+00 4.828136641022434151e-03 1.893900408978071038e-03
4.709999999999999777e-03 4.431905410739045870e+00 6.903512974832482635e-03 2.096551352830673849e-03
7.496000000000000059e-03 7.058993649504918366e+00 1.289742191321638018e-02 2.466596387205546859e-03
1.119999999999999989e-02 1.055540362104863661e+01 2.212077014004794340e-02 2.809304433764861584e-03
1.600000000000000033e-02 1.509117352747679952e+01 3.559566804390756900e-02 3.132325055719984222e-03
2.206999999999999934e-02 2.083310616724802244e+01 5.457322122755020599e-02 3.477840948757840792e-03
2.947999999999999926e-02 2.785007348564149154e+01 8.049103664263126956e-02 3.909302116317729670e-03
4.268000000000000266e-02 4.036707211535221518e+01 1.353887601042819133e-01 4.862066536253286525e-03
6.219999999999999835e-02 5.891246509830522626e+01 2.419691225623893105e-01 6.630786177272363080e-03
7.316999999999999893e-02 6.935151695866235855e+01 3.161896974764099033e-01 7.588671314871411888e-03
7.595999999999999974e-02 7.200836722020332559e+01 3.371250777904805096e-01 8.170805199905812125e-03
7.685877551020407761e-02 7.286441682612914406e+01 3.442105806170765447e-01 8.383139788392465416e-03
7.775755102040816935e-02 7.372055037375817221e+01 3.514820723688518722e-01 8.603667391759080643e-03
7.865632653061224722e-02 7.457676908233534618e+01 3.589464426021790611e-01 8.831985287973728727e-03
7.955510204081632508e-02 7.543307422002621365e+01 3.666102393205964427e-01 9.067690755004490996e-03
8.045387755102040295e-02 7.628946709839890161e+01 3.744796688882058300e-01 9.310381070819452251e-03
8.135265306122449469e-02 7.714594906715244349e+01 3.825605959370171893e-01 9.559653513386683413e-03
8.225142857142857256e-02 7.800252150907640214e+01 3.908585432675560911e-01 9.815105360674262341e-03
8.315020408163265042e-02 7.885918583522995107e+01 3.993786917421459082e-01 1.007633389065026690e-02
8.404897959183672829e-02 7.971594348032843413e+01 4.081258801703582795e-01 1.034293638128277668e-02
8.494775510204082003e-02 8.057279589832560873e+01 4.171046051862108417e-01 1.061451011053987301e-02
8.584653061224489790e-02 8.142974455818168167e+01 4.263190211167615651e-01 1.089065235638962681e-02
8.674530612244897576e-02 8.228679093980728965e+01 4.357729398418238032e-01 1.117096039680011768e-02
8.764408163265305363e-02 8.314393653017383201e+01 4.454698306445858402e-01 1.145503150973942869e-02
8.854285714285714537e-02 8.400118281958236821e+01 4.554128200529847792e-01 1.174246297317563942e-02
8.944163265306122323e-02 8.485853129808116080e+01 4.656046916717374029e-01 1.203285206507681733e-02
9.034040816326530110e-02 8.571598345202698965e+01 4.760478860049887628e-01 1.232579606341104549e-02
9.123918367346939284e-02 8.657354076078055982e+01 4.867445002695836020e-01 1.262089224614640348e-02
9.213795918367347071e-02 8.743120469353016233e+01 4.976962881990166232e-01 1.291773789125097091e-02
9.303673469387754857e-02 8.828897670623796046e+01 5.089046598381622433e-01 1.321593027669281870e-02
9.393551020408162644e-02 8.914685823870182446e+01 5.203706813289208366e-01 1.351506668044002990e-02
9.483428571428570431e-02 9.000485071172762730e+01 5.320950746869631542e-01 1.381474438046068065e-02
9.573306122448979605e-02 9.086295552440643064e+01 5.440782175697878031e-01 1.411456065472285575e-02
9.663183673469387391e-02 9.172117405149202796e+01 5.563201430363408084e-01 1.441411278119462264e-02
9.753061224489795178e-02 9.257950764087354401e+01 5.688205392984824194e-01 1.471299803784406439e-02
9.842938775510204352e-02 9.343795761113884168e+01 5.815787494646116329e-01 1.501081370263926407e-02
9.932816326530612139e-02 9.429652524922499879e+01 5.945937712757912719e-01 1.530715705354828739e-02
1.002269387755101993e-01 9.515521180815056823e+01 6.078642568347452091e-01 1.560162536853922262e-02
1.011257142857142910e-01 9.601401850482750433e+01 6.213885123281192024e-01 1.589381592558014589e-02
1.020244897959183689e-01 9.687294651794799449e+01 6.351644977424267813e-01 1.618332600263912985e-02
1.029232653061224467e-01 9.773199698594345364e+01 6.491898265741251617e-01 1.646975287768425583e-02
1.038220408163265246e-01 9.859117100501201492e+01 6.634617655342816001e-01 1.675269382868359996e-02
1.047208163265306025e-01 9.945046962721190198e+01 6.779772342483191272e-01 1.703174613360524878e-02
1.056195918367346942e-01 1.003098938586174000e+02 6.927328049513452601e-01 1.730650707041727493e-02
1.065183673469387721e-01 1.011694446575357631e+02 7.077247021795879389e-01 1.757657391708775108e-02
1.074171428571428499e-01 1.020291229327803109e+02 7.229488024584822536e-01 1.784154395158475681e-02
1.083159183673469417e-01 1.028889295420004117e+02 7.384006339879644054e-01 1.810101445187637520e-02
1.092146938775510195e-01 1.037488652900625539e+02 7.540753763255486630e-01 1.835458269593068237e-02
1.101134693877550974e-01 1.046089309274836268e+02 7.699678600677800633e-01 1.860184596171575444e-02
1.110122448979591891e-01 1.054691271489114825e+02 7.860725665306648180e-01 1.884240152719967448e-02
1.119110204081632531e-01 1.063294545916529330e+02 8.023836274296983762e-01 1.907584667035051168e-02
1.128097959183673449e-01 1.071899138342462976e+02 8.188948245601279652e-01 1.930177866913635604e-02
1.137085714285714227e-01 1.080505053950766694e+02 8.355995894780857691e-01 1.951979480152527327e-02
1.146073469387755006e-01 1.089112297310324777e+02 8.524910031832616530e-01 1.972949234548534297e-02
1.155061224489795924e-01 1.097720872362020401e+02 8.695617958037759054e-01 1.993046857898465862e-02
1.164048979591836702e-01 1.106330782406080004e+02 8.868043462839354518e-01 2.012232077999127206e-02
1.173036734693877481e-01 1.114942030089781042e+02 9.042106820755677621e-01 2.030464622647328021e-02
1.182024489795918398e-01 1.123554617395524389e+02 9.217724788336280062e-01 2.047704219639875922e-02
1.191012244897959177e-01 1.132168545629230323e+02 9.394810601167948860e-01 2.063910596773578174e-02
1.199999999999999956e-01 1.140783815409075714e+02 9.573273970937762334e-01 2.079043481845243083e-02
1.212059169399395536e-01 1.152345317038237198e+02 9.814739394256373206e-01 2.098015107204131979e-02
1.224118338798791117e-01 1.163909232230013231e+02 1.005844469326319324e+00 2.116910729236820207e-02
1.236177508198186836e-01 1.175475559232069713e+02 1.030438145615382606e+00 2.135721742860420200e-02
1.248236677597582417e-01 1.187044296239273535e+02 1.055254025713964205e+00 2.154439360612602286e-02
1.260295846996977998e-01 1.198615441385319258e+02 1.080291063429033915e+00 2.173054612578902145e-02
1.272355016396373717e-01 1.210188992734467064e+02 1.105548106733878599e+00 2.191558346250726749e-02
1.284414185795769159e-01 1.221764948273373648e+02 1.131023895544048807e+00 2.209941226315195739e-02
1.296473355195164878e-01 1.233343305903036509e+02 1.156717059488017174e+00 2.228193734377680729e-02
1.308532524594560320e-01 1.244924063430814982e+02 1.182626115671794320e+00 2.246306168617922400e-02
1.320591693993956039e-01 1.256507218562550179e+02 1.208749466436784825e+00 2.264268643380507734e-02
1.332650863393351481e-01 1.268092768894760241e+02 1.235085397110143424e+00 2.282071088700330513e-02
1.344710032792747201e-01 1.279680711906920294e+02 1.261632073746938421e+00 2.299703249763736940e-02
1.356769202192142920e-01 1.291271044953811042e+02 1.288387540863398018e+00 2.317154686305817821e-02
1.368828371591538362e-01 1.302863765257938269e+02 1.315349719160560094e+00 2.334414771944364267e-02
1.380887540990934081e-01 1.314458869902027516e+02 1.342516403237629108e+00 2.351472693450904622e-02
1.392946710390329801e-01 1.326056355821563670e+02 1.369885259294352675e+00 2.368317449959136956e-02
1.405005879789725243e-01 1.337656219797407005e+02 1.397453822821754343e+00 2.384937852111108231e-02
1.417065049189120962e-01 1.349258458448448437e+02 1.425219496280544007e+00 2.401322521141333738e-02
1.429124218588516404e-01 1.360863068224333858e+02 1.453179546766535379e+00 2.417459887899072249e-02
1.441183387987912123e-01 1.372470045398217735e+02 1.481331103662426152e+00 2.433338191808896364e-02
1.453242557387307565e-01 1.384079386059578383e+02 1.509671156275262716e+00 2.448945479769658665e-02
1.465301726786703285e-01 1.395691086107065360e+02 1.538196551458958394e+00 2.464269604991892182e-02
1.477360896186099004e-01 1.407305141241385513e+02 1.566903991221193948e+00 2.479298225773663572e-02
1.489420065585494446e-01 1.418921546958232227e+02 1.595790030314071295e+00 2.494018804214862689e-02
1.501479234984890165e-01 1.430540298541249058e+02 1.624851073807868085e+00 2.508418604869821003e-02
1.513538404384285885e-01 1.442161391055005879e+02 1.654083374647246751e+00 2.522484693338197109e-02
1.525597573783681327e-01 1.453784819338027887e+02 1.683483031189288992e+00 2.536203934793951689e-02
1.537656743183076768e-01 1.465410577995835979e+02 1.713045984722710191e+00 2.549562992452266558e-02
1.549715912582472488e-01 1.477038661394007875e+02 1.742768016967617850e+00 2.562548325974173605e-02
1.561775081981868207e-01 1.488669063651269369e+02 1.772644747555176092e+00 2.575146189808669508e-02
1.573834251381263649e-01 1.500301778632596665e+02 1.802671631486549408e+00 2.587342631472052887e-02
1.585893420780659369e-01 1.511936799942336620e+02 1.832843956570486377e+00 2.599123489764171638e-02
1.597952590180055088e-01 1.523574120917342043e+02 1.863156840838903205e+00 2.610474392921253647e-02
1.610011759579450530e-01 1.535213734620114963e+02 1.893605229939848922e+00 2.621380756705005144e-02
1.622070928978846249e-01 1.546855633831960404e+02 1.924183894507210724e+00 2.631827782427553775e-02
1.634130098378241969e-01 1.558499811046149262e+02 1.954887427506521558e+00 2.641800454911865520e-02
1.646189267777637411e-01 1.570146258461086859e+02 1.985710241556250866e+00 2.651283540387211479e-02
1.658248437177032852e-01 1.581794967973479800e+02 2.016646566223936343e+00 2.660261584319228642e-02
1.670307606576428572e-01 1.593445931171507368e+02 2.047690445296524775e+00 2.668718909174114945e-02
1.682366775975824291e-01 1.605099139327988382e+02 2.078835734024289117e+00 2.676639612116479827e-02
1.694425945375219733e-01 1.616754583393556857e+02 2.110076096337692331e+00 2.684007562640336117e-02
1.706485114774615452e-01 1.628412253989816065e+02 2.141405002036562699e+00 2.690806400132718726e-02
1.718544284174011172e-01 1.640072141402499710e+02 2.172815723950936917e+00 2.697019531369384410e-02
1.730603453573406614e-01 1.651734235574618594e+02 2.204301335072953005e+00 2.702630127942044769e-02
1.742662622972802333e-01 1.663398526099599621e+02 2.235854705659148678e+00 2.707621123616560724e-02
1.754721792372197775e-01 1.675065002214409162e+02 2.267468500302523449e+00 2.711975211621509008e-02
1.766780961771593494e-01 1.686733652792674434e+02 2.299135174973749418e+00 2.715674841866542663e-02
1.778840131170988936e-01 1.698404466337770202e+02 2.330846974030869490e+00 2.718702218089906822e-02
1.790899300570384656e-01 1.710077430975909749e+02 2.362595927196872392e+00 2.721039294934517530e-02
2.570676865864866545e-01 2.475223621989035223e+02 8.016774712763604427e+00 1.193888214432602818e-01
3.350454431159348712e-01 3.267677911548335601e+02 2.121112273484298782e+01 2.115672499371754334e-01
4.130231996453830323e-01 4.099682519982718532e+02 4.275947232305313150e+01 3.037456784310905156e-01
4.910009561748313045e-01 4.980521206555440017e+02 7.371653397973084054e+01 3.959241069250057365e-01
5.689787127042794657e-01 5.918329423821974160e+02 1.153453529973478595e+02 4.881025354189208465e-01
6.469564692337276268e-01 6.920862238072820674e+02 1.691150594744182172e+02 5.802809639128357899e-01
7.249342257631758990e-01 7.995890008590229172e+02 2.367113539518950915e+02 6.724593924067510109e-01
8.029119822926240602e-01 9.151436529176414751e+02 3.200541359749277603e+02 7.646378209006661208e-01
8.808897388220722213e-01 1.039594321037514874e+03 4.213202102033259280e+02 8.568162493945812308e-01
9.588674953515204935e-01 1.173790103245002229e+03 5.336274164108459672e+02 8.196416894686565646e-01
1.036845251880968766e+00 1.316883394135065373e+03 6.246865439806383620e+02 4.678114802609608658e-01
1.114823008410416927e+00 1.464756372121093591e+03 6.674901470418285498e+02 1.159812710532657221e-01
1.192800764939865088e+00 1.614448131197312705e+03 6.833935282300129757e+02 9.658603972432498741e-02
1.270778521469313471e+00 1.765359135341381716e+03 7.063373593398632693e+02 2.068895250548332676e-01
1.348756277998761632e+00 1.918165803518264738e+03 7.464591403582792282e+02 3.171930103853412009e-01
1.426734034528209794e+00 2.073772217307731808e+03 8.045167713753816088e+02 4.274964957158491341e-01
1.504711791057657955e+00 2.233031691215016963e+03 8.815436861350881372e+02 5.377999810463570673e-01
1.582689547587106116e+00 2.396768760074321108e+03 9.788395379235613518e+02 6.481034663768651116e-01
1.660667304116554499e+00 2.565701936158945500e+03 1.085507584916568703e+03 6.156367543657103036e-01
1.738645060646002660e+00 2.739534135861377763e+03 1.184431991928221805e+03 5.244706342972237367e-01
1.816622817175450821e+00 2.917486983629399674e+03 1.269520408451582171e+03 4.333045142287371698e-01
1.894600573704898983e+00 3.098764920090949545e+03 1.339708957715072302e+03 3.421383941602505474e-01
1.972578330234347144e+00 3.282599040448184496e+03 1.394158991976929201e+03 2.509722740917639250e-01
2.050556086763795083e+00 3.468252668412178537e+03 1.432248700235637443e+03 1.598061540232775801e-01
