# density  energy_density  pressure   sound_speed_squared  [All in nuclear units]
2.720000000000000022e-14 2.529924618736292620e-11 1.061056609100270887e-19 3.766610435412189122e-08
1.269999999999999890e-13 1.181251617980081254e-10 4.870113551826584858e-18 6.497781477172163475e-08
6.929999999999999754e-13 6.445728594625782745e-10 1.018299070687946017e-16 3.033770597342807186e-07
6.295000000000000137e-12 5.855111460395753757e-09 5.487150723824490656e-15 1.763710043904196507e-06
1.581000000000000150e-11 1.470523320212576141e-08 2.904239460150760759e-14 3.559434472327477622e-06
3.971999999999999958e-11 3.694456170323160790e-08 1.439340266754906811e-13 6.772854871245677111e-06
9.975999999999999982e-11 9.278976412613005154e-08 6.812143616221268841e-13 1.246890511177539320e-05
2.505999999999999928e-10 2.330928829758143313e-07 3.107749196951638608e-12 2.212095130576091967e-05
6.294000000000000186e-10 5.854398883216247602e-07 1.363250409771533549e-11 3.761981047239428883e-05
1.581000000000000021e-09 1.470619631082054101e-06 5.726014178088476303e-11 6.095350986710739404e-05
3.971999999999999932e-09 3.694861084648016046e-06 2.210019573374265380e-10 8.628023653304385055e-05
5.000000000000000105e-09 4.651201787816927976e-06 3.071485916280120014e-10 9.387863480799757518e-05
9.975999999999999465e-09 9.280587964640925786e-06 8.385361004129998845e-10 1.356922228656245837e-04
1.989999999999999952e-08 1.851419242998081003e-05 2.287763168863418088e-09 1.782101978513718314e-04
3.972999999999999908e-08 3.696699295748789187e-05 6.061583099087538954e-09 2.308134738384234820e-04
7.925999999999999637e-08 7.375765469301719828e-05 1.575347858094044765e-08 2.960532096713864875e-04
1.580999999999999930e-07 1.471491184379128891e-04 3.910429618672550719e-08 3.402859755131850544e-04
1.991000000000000027e-07 1.853209783927820692e-04 5.252045687899177454e-08 3.626488188833278743e-04
3.155999999999999938e-07 2.938002528823880299e-04 9.730770378831954314e-08 4.630767356912104081e-04
5.000999999999999849e-07 4.656344063839075714e-04 1.837494945860225819e-07 5.430301232045120323e-04
6.295999999999999732e-07 5.862651417037388971e-04 2.503103884558263872e-07 5.605192962670089638e-04
9.666999999999999941e-07 9.003386739730535665e-04 4.324450868778576936e-07 5.993081670211623108e-04
1.531999999999999901e-06 1.427170885631398036e-03 7.780217275717420968e-07 7.125938556504039095e-04
2.506999999999999883e-06 2.336134972129507662e-03 1.471005394641589826e-06 8.121876172121876309e-04
3.974000000000000407e-06 3.704315759716615697e-03 2.695705763844323844e-06 9.780674166779417152e-04
4.830000000000000343e-06 4.502887798316278223e-03 3.503988717694660908e-06 1.046253037768318664e-03
6.080999999999999885e-06 5.670217999231269741e-03 4.731126407333307547e-06 1.056224360839501646e-03
7.930000000000000308e-06 7.396012414119570652e-03 6.599662989063778187e-06 1.109203753630785610e-03
9.982000000000000313e-06 9.311815711689977113e-03 8.879881089227186733e-06 1.271216815433141075e-03
1.256999999999999993e-05 1.172874412604260098e-02 1.207676739913533738e-05 1.374195438212825332e-03
1.521999999999999997e-05 1.420427250933824909e-02 1.547541302213394990e-05 1.371610497379100249e-03
1.991000000000000080e-05 1.858690797761085312e-02 2.160710455847765458e-05 1.426578142835871997e-03
2.506999999999999883e-05 2.341050104039446925e-02 2.908031724375689851e-05 1.672007475975408053e-03
2.790999999999999875e-05 2.606604784714952258e-02 3.357009132255487721e-05 1.709425557744154774e-03
3.806999999999999973e-05 3.556967988784798945e-02 4.986781576435106434e-05 1.720407281314112165e-03
5.063000000000000145e-05 4.732434580343149871e-02 7.073400252905581275e-05 1.829889149838781265e-03
6.592000000000000583e-05 6.164112392498975052e-02 9.765037643900635188e-05 1.930242980462695823e-03
8.433000000000000066e-05 7.888776783401378612e-02 1.317235490470395893e-04 2.021055815200022837e-03
1.062000000000000064e-04 9.938561165478684845e-02 1.740088341640037047e-04 2.104789529260958983e-03
1.321000000000000126e-04 1.236720406455826121e-01 2.260189757651373944e-04 2.178291718403657477e-03
1.623999999999999901e-04 1.520974545104751274e-01 2.888169908545388338e-04 2.240170365918073281e-03
1.689999999999999879e-04 1.582907717069566844e-01 3.027354772999506964e-04 2.254509350360745651e-03
1.758999999999999930e-04 1.647661861691531171e-01 3.173785841705756782e-04 2.268169273277113179e-03
1.830000000000000029e-04 1.714298948183871907e-01 3.325196584577469103e-04 2.276170334580628063e-03
1.901999999999999882e-04 1.781880600978280049e-01 3.479577791899843742e-04 2.292561569242367037e-03
1.977000000000000079e-04 1.852284385240466902e-01 3.641242634600037713e-04 2.299943765467868384e-03
2.054000000000000053e-04 1.924572004474696396e-01 3.808304060475003897e-04 2.322187632288155723e-03
2.079000000000000119e-04 1.948043378760714872e-01 3.864137987380476553e-04 2.435429768083530178e-03
2.081999999999999921e-04 1.950859988578999005e-01 3.870314100985603909e-04 1.950065624557156818e-03
2.090999999999999868e-04 1.959309855029948977e-01 3.881261957135444685e-04 6.411875526909013856e-04
2.159999999999999919e-04 2.024093317906446865e-01 3.940874488768042125e-04 1.199166870571831411e-03
2.231000000000000019e-04 2.090756740932291913e-01 4.013938420547467825e-04 9.928616047829054436e-04
2.311000000000000066e-04 2.165873044433437034e-01 4.085241694843774404e-04 9.056166966301716637e-04
2.401000000000000085e-04 2.250381721984245909e-01 4.159700687886608468e-04 8.565463878902855599e-04
2.500000000000000052e-04 2.343344406330727658e-01 4.237602369176299592e-04 8.194318812157330018e-04
2.642999999999999733e-04 2.477629128650125634e-01 4.345596643180389446e-04 7.890063723638815647e-04
3.052999999999999941e-04 2.862671839140227270e-01 4.644058706720978241e-04 7.612775562167708662e-04
3.533000000000000224e-04 3.313503829113090826e-01 4.987577676308450197e-04 7.626578558207241024e-04
4.075999999999999871e-04 3.823564017794535141e-01 5.381334366106255759e-04 7.813048116943254948e-04
4.679999999999999915e-04 4.390986251953180042e-01 5.832692638200615834e-04 8.096035963157804938e-04
5.341000000000000261e-04 5.012024644415256081e-01 6.346556894078133086e-04 8.452514814113673558e-04
6.059000000000000366e-04 5.686690698184251325e-01 6.930641302632923034e-04 8.862253587289389486e-04
7.661000000000000275e-04 7.192254882508629654e-01 8.328184776562496576e-04 9.702780530519144065e-04
1.262000000000000101e-03 1.185459127778160093e+00 1.338484980802662205e-03 1.198863597978450275e-03
1.894999999999999983e-03 1.780909071169781921e+00 2.123481960401060308e-03 1.437771491635827115e-03
2.673000000000000029e-03 2.513147344746868850e+00 3.261860252001994032e-03 1.671524566936786766e-03
3.605999999999999830e-03 3.391736073717691369e+00 4.828136641022434151e-03 1.893900408978071038e-03
4.709999999999999777e-03 4.431905410739045870e+00 6.903512974832482635e-03 2.096551352830673849e-03
7.496000000000000059e-03 7.058993649504918366e+00 1.289742191321638018e-02 2.466596387205546859e-03
1.119999999999999989e-02 1.055540362104863661e+01 2.212077014004794340e-02 2.809304433764861584e-03
1.600000000000000033e-02 1.509117352747679952e+01 3.559566804390756900e-02 3.132325055719984222e-03
2.206999999999999934e-02 2.083310616724802244e+01 5.457322122755020599e-02 3.477840948757840792e-03
2.947999999999999926e-02 2.785007348564149154e+01 8.049103664263126956e-02 3.909302116317729670e-03
4.268000000000000266e-02 4.036707211535221518e+01 1.353887601042819133e-01 4.862066536253286525e-03
6.219999999999999835e-02 5.891246509830522626e+01 2.419691225623893105e-01 6.630786177272363080e-03
7.316999999999999893e-02 6.935151695866235855e+01 3.161896974764099033e-01 7.588671314871411888e-03
7.595999999999999974e-02 7.200836722020332559e+01 3.371250777904805096e-01 8.170805199905812125e-03
7.685877551020407761e-02 7.286441678397183352e+01 3.442033660711996124e-01 8.366285997837983462e-03
7.775755102040816935e-02 7.372055009417573501e+01 3.514485591648776608e-01 8.559091401700535257e-03
7.865632653061224722e-02 7.457676809960423725e+01 3.588584936689536709e-01 8.749423662699392854e-03
7.955510204081632508e-02 7.543307170362282932e+01 3.664311788591651520e-01 8.937485032040490274e-03
8.045387755102040295e-02 7.628946176766385179e+01 3.741647967424602261e-01 9.123477760929763272e-03
8.135265306122449469e-02 7.714593911456250908e+01 3.820577021145239449e-01 9.307604100573140665e-03
8.225142857142857256e-02 7.800250453174535892e+01 3.901084226215517647e-01 9.490066302176551269e-03
8.315020408163265042e-02 7.885915877428050180e+01 3.983156588259404440e-01 9.671066616945927369e-03
8.404897959183672829e-02 7.971590256779666106e+01 4.066782842755969352e-01 9.850807296087201251e-03
8.494775510204082003e-02 8.057273661127791797e+01 4.151953455765993728e-01 1.002949059080630867e-02
8.584653061224489790e-02 8.142966157974126418e+01 4.238660624689699064e-01 1.020731875230917497e-02
8.674530612244897576e-02 8.228667812680222937e+01 4.326898279053490448e-01 1.038449403180173418e-02
8.764408163265305363e-02 8.314378688713577503e+01 4.416662081323816658e-01 1.056121868048991858e-02
8.854285714285714537e-02 8.400098847883639053e+01 4.507949427746519300e-01 1.073769494957966392e-02
8.944163265306122323e-02 8.485828350568388601e+01 4.600759449210232166e-01 1.091412509027689035e-02
9.034040816326530110e-02 8.571567255931822160e+01 4.695093012132620092e-01 1.109071135378753535e-02
9.123918367346939284e-02 8.657315622132925625e+01 4.790952719368402613e-01 1.126765599131753816e-02
9.213795918367347071e-02 8.743073506526475569e+01 4.888342911138306990e-01 1.144516125407281891e-02
9.303673469387754857e-02 8.828840965856136336e+01 4.987269665978278921e-01 1.162342939325931336e-02
9.393551020408162644e-02 8.914618056440119176e+01 5.087740801708378058e-01 1.180266266008295380e-02
9.483428571428570431e-02 9.000404834349878058e+01 5.189765876420996404e-01 1.198306330574966730e-02
9.573306122448979605e-02 9.086201355582130645e+01 5.293356189488136465e-01 1.216483358146539830e-02
9.663183673469387391e-02 9.172007676224485806e+01 5.398524782587614812e-01 1.234817573843606520e-02
9.753061224489795178e-02 9.257823852615027249e+01 5.505286440748220489e-01 1.253329202786760202e-02
9.842938775510204352e-02 9.343649941496067868e+01 5.613657693413902638e-01 1.272038470096594973e-02
9.932816326530612139e-02 9.429486000162469850e+01 5.723656815527227160e-01 1.290965600893702325e-02
1.002269387755101993e-01 9.515332086604594508e+01 5.835303828632442125e-01 1.310130820298676529e-02
1.011257142857142910e-01 9.601188259646310996e+01 5.948620501998536092e-01 1.329554353432111334e-02
1.020244897959183689e-01 9.687054579078153438e+01 6.063630353762821112e-01 1.349256425414597886e-02
1.029232653061224467e-01 9.772931105785880845e+01 6.180358652095646610e-01 1.369257261366731322e-02
1.038220408163265246e-01 9.858817901874661516e+01 6.298832416386889177e-01 1.389577086409103830e-02
1.047208163265306025e-01 9.944715030789096488e+01 6.419080418455008763e-01 1.410236125662308465e-02
1.056195918367346942e-01 1.003062255742916022e+02 6.541133183779470617e-01 1.431254604246939496e-02
1.065183673469387721e-01 1.011654054826232283e+02 6.665022992757443365e-01 1.452652747283588591e-02
1.074171428571428499e-01 1.020246907143205988e+02 6.790783881985741344e-01 1.474450779892849672e-02
1.083159183673469417e-01 1.028840819686272567e+02 6.918451645569018149e-01 1.496668927195315968e-02
1.092146938775510195e-01 1.037435799636113671e+02 7.048063836455299436e-01 1.519327414311580360e-02
1.101134693877550974e-01 1.046031854371490795e+02 7.179659767800015135e-01 1.542446466362236424e-02
1.110122448979591891e-01 1.054628991478767404e+02 7.313280514359694617e-01 1.566046308467877041e-02
1.119110204081632531e-01 1.063227218761132207e+02 7.448968913916570456e-01 1.590147165749094399e-02
1.128097959183673449e-01 1.071826544247546451e+02 7.586769568735437508e-01 1.614769263326483462e-02
1.137085714285714227e-01 1.080426976201404159e+02 7.726728847053999649e-01 1.639932826320636416e-02
1.146073469387755006e-01 1.089028523128944670e+02 7.868894884608204077e-01 1.665658079852146492e-02
1.155061224489795924e-01 1.097631193787401855e+02 8.013317586193906550e-01 1.691965249041606917e-02
1.164048979591836702e-01 1.106234997192919707e+02 8.160048627266355270e-01 1.718874559009610919e-02
1.173036734693877481e-01 1.114839942628229039e+02 8.309141455579022173e-01 1.746406234876751382e-02
1.182024489795918398e-01 1.123446039650112596e+02 8.460651292863281547e-01 1.774580501763622226e-02
1.191012244897959177e-01 1.132053298096641782e+02 8.614635136550526928e-01 1.803417584790814945e-02
1.199999999999999956e-01 1.140661728094218290e+02 8.771151761538361624e-01 1.832937709078924504e-02
1.210654350316595906e-01 1.150867947857680207e+02 8.960050031298266715e-01 1.868690217568171053e-02
1.221308700633191857e-01 1.161075846247907890e+02 9.152643500954932287e-01 1.904727789372577529e-02
1.231963050949787808e-01 1.171285440990041735e+02 9.348962690788963359e-01 1.941047889428282325e-02
1.242617401266383759e-01 1.181496749765620393e+02 9.549037898226814258e-01 1.977648045007492431e-02
1.253271751582979709e-01 1.191709790211827169e+02 9.752899204260978561e-01 2.014525845810054630e-02
1.263926101899575660e-01 1.201924579920798379e+02 9.960576479879371670e-01 2.051678944051032669e-02
1.274580452216171611e-01 1.212141136439027207e+02 1.017209939250379280e+00 2.089105054544728932e-02
1.285234802532767562e-01 1.222359477266828947e+02 1.038749741243738089e+00 2.126801954785273799e-02
1.295889152849363235e-01 1.232579619857886684e+02 1.060679981932101557e+00 2.164767485024179233e-02
1.306543503165959186e-01 1.242801581618854101e+02 1.083003570859864650e+00 2.202999548345056444e-02
1.317197853482555137e-01 1.253025379909035735e+02 1.105723399799148687e+00 2.241496110735740482e-02
1.327852203799151087e-01 1.263251032040121657e+02 1.128842343398117398e+00 2.280255201158114947e-02
1.338506554115747038e-01 1.273478555275985684e+02 1.152363259830188724e+00 2.319274911615796034e-02
1.349160904432342989e-01 1.283707966832544116e+02 1.176288991444148557e+00 2.358553397219918454e-02
1.359815254748938940e-01 1.293939283877664082e+02 1.200622365415176418e+00 2.398088876253262267e-02
1.370469605065534890e-01 1.304172523531130707e+02 1.225366194396792618e+00 2.437879630232882636e-02
1.381123955382130841e-01 1.314407702864669432e+02 1.250523277173738013e+00 2.477924003971392064e-02
1.391778305698726792e-01 1.324644838902006541e+02 1.276096399315801655e+00 2.518220405637195194e-02
1.402432656015322743e-01 1.334883948618988256e+02 1.302088333832610800e+00 2.558767306813723719e-02
1.413087006331918694e-01 1.345125048943741888e+02 1.328501841829400343e+00 2.599563242557912865e-02
1.423741356648514644e-01 1.355368156756885014e+02 1.355339673163780567e+00 2.640606811458039854e-02
1.434395706965110595e-01 1.365613288891770480e+02 1.382604567103522752e+00 2.681896675691106818e-02
1.445050057281706546e-01 1.375860462134781415e+02 1.410299252985384166e+00 2.723431561079864283e-02
1.455704407598302219e-01 1.386109693225657793e+02 1.438426450874994211e+00 2.765210257149650075e-02
1.466358757914898447e-01 1.396360998857872175e+02 1.466988872227831475e+00 2.807231617185196315e-02
1.477013108231494121e-01 1.406614395679029030e+02 1.495989220551299237e+00 2.849494558287433282e-02
1.487667458548090071e-01 1.416869900291316355e+02 1.525430192067956714e+00 2.891998061430539266e-02
1.498321808864686022e-01 1.427127529251976057e+02 1.555314476379896726e+00 2.934741171519224603e-02
1.508976159181281973e-01 1.437387299073819804e+02 1.585644757134326177e+00 2.977722997446449402e-02
1.519630509497877924e-01 1.447649226225772736e+02 1.616423712690365999e+00 3.020942712151637732e-02
1.530284859814473875e-01 1.457913327133447297e+02 1.647654016787102105e+00 3.064399552679467412e-02
1.540939210131069825e-01 1.468179618179750605e+02 1.679338339212919751e+00 3.108092820239374485e-02
1.551593560447665776e-01 1.478448115705521104e+02 1.711479346476152408e+00 3.152021880265815090e-02
1.562247910764261727e-01 1.488718836010190500e+02 1.744079702477078664e+00 3.196186162479398157e-02
1.572902261080857678e-01 1.498991795352481802e+02 1.777142069181298023e+00 3.240585160948935423e-02
1.583556611397453628e-01 1.509267009951117871e+02 1.810669107294523128e+00 3.285218434154532630e-02
1.594210961714049579e-01 1.519544495985577726e+02 1.844663476938819269e+00 3.330085605051708725e-02
1.604865312030645530e-01 1.529824269596861939e+02 1.879127838330330258e+00 3.375186361136717911e-02
1.615519662347241203e-01 1.540106346888285032e+02 1.914064852458522425e+00 3.420520454513020780e-02
1.626174012663837432e-01 1.550390743926300559e+02 1.949477181766991141e+00 3.466087701959051637e-02
1.636828362980433105e-01 1.560677476741336420e+02 1.985367490835846738e+00 3.511887984997279222e-02
1.647482713297029333e-01 1.570966561328670252e+02 2.021738447065755118e+00 3.557921249964646898e-02
1.658137063613625006e-01 1.581258013649299698e+02 2.058592721363618150e+00 3.604187508084394365e-02
1.668791413930220957e-01 1.591551849630867537e+02 2.095932988829991128e+00 3.650686835539380254e-02
1.679445764246816908e-01 1.601848085168577711e+02 2.133761929448221295e+00 3.697419373546829979e-02
1.690100114563412859e-01 1.612146736126152859e+02 2.172082228775385815e+00 3.744385328434669813e-02
1.700754464880008809e-01 1.622447818336795251e+02 2.210896578635049181e+00 3.791584971719361846e-02
1.711408815196604760e-01 1.632751347604180410e+02 2.250207677811885354e+00 3.839018640185377917e-02
1.722063165513200711e-01 1.643057339703463526e+02 2.290018232748203264e+00 3.886686735966250750e-02
2.503245549890482646e-01 2.412523935942838591e+02 9.670587598222605052e+00 1.509973890319406820e-01
3.284427934267764027e-01 3.217933985448199792e+02 2.648060948700733519e+01 2.631279107042187593e-01
4.065610318645045407e-01 4.074769568652652083e+02 5.401638026286741479e+01 3.752584323764968643e-01
4.846792703022327342e-01 4.995292209101766048e+02 9.396501507311930368e+01 4.873889540487750249e-01
5.627975087399608167e-01 5.990760403271415271e+02 1.483757154472571074e+02 5.995194757210530190e-01
6.409157471776890658e-01 7.072171269991035842e+02 2.186562721550577635e+02 6.943850904474496710e-01
7.190339856154173148e-01 8.247283473448280802e+02 2.963774312043362897e+02 6.328429349304848239e-01
7.971522240531454528e-01 9.505933411456775275e+02 3.719391302557941117e+02 5.713007794135200879e-01
8.752704624908735909e-01 1.083696225722048212e+03 4.437059557944904213e+02 5.097586238965553518e-01
9.533887009286017289e-01 1.222985433836459833e+03 5.102791126223834226e+02 4.482164683795905602e-01
1.031506939366329867e+00 1.367476711578135564e+03 5.704820815980624502e+02 3.866743128626258241e-01
1.109625177804058005e+00 1.516254036587123892e+03 6.233445183457145049e+02 3.251321573456610325e-01
1.187743416241786365e+00 1.668237466543673918e+03 6.595450208857166672e+02 1.530166699332237701e-01
1.265861654679514503e+00 1.822972251848051201e+03 7.378857902321643678e+02 8.432013926358479239e-01
1.343979893117242641e+00 1.985104643271921759e+03 8.733934525080336471e+02 8.291384603232301309e-01
1.422098131554970779e+00 2.155243021499559291e+03 1.013204890801855868e+03 8.150755280106123379e-01
1.500216369992698917e+00 2.333172915662689320e+03 1.156921626242874936e+03 8.010125956979945450e-01
1.578334608430427055e+00 2.518681715333385000e+03 1.304155695453074486e+03 7.869496633853767520e-01
1.656452846868155193e+00 2.711558917586683492e+03 1.454529740678653752e+03 7.728867310727589590e-01
1.734571085305883331e+00 2.911596330375548860e+03 1.607677048631844400e+03 7.588237987601412771e-01
1.812689323743611691e+00 3.118588239988187524e+03 1.763241547686461900e+03 7.447608664475233731e-01
1.890807562181339829e+00 3.332331548715039389e+03 1.920877771060793066e+03 7.306979341349056911e-01
1.968925800619067967e+00 3.552625887613707619e+03 2.080250792099017872e+03 7.166350018222878981e-01
2.047044039056796105e+00 3.779273708312643066e+03 2.241036136593219453e+03 7.025720695096701052e-01
