# density  energy_density  pressure   sound_speed_squared  [All in nuclear units]
2.720000000000000022e-14 2.529924618736292620e-11 1.061056609100270887e-19 3.766610435412189122e-08
1.269999999999999890e-13 1.181251617980081254e-10 4.870113551826584858e-18 6.497781477172163475e-08
6.929999999999999754e-13 6.445728594625782745e-10 1.018299070687946017e-16 3.033770597342807186e-07
6.295000000000000137e-12 5.855111460395753757e-09 5.487150723824490656e-15 1.763710043904196507e-06
1.581000000000000150e-11 1.470523320212576141e-08 2.904239460150760759e-14 3.559434472327477622e-06
3.971999999999999958e-11 3.694456170323160790e-08 1.439340266754906811e-13 6.772854871245677111e-06
9.975999999999999982e-11 9.278976412613005154e-08 6.812143616221268841e-13 1.246890511177539320e-05
2.505999999999999928e-10 2.330928829758143313e-07 3.107749196951638608e-12 2.212095130576091967e-05
6.294000000000000186e-10 5.854398883216247602e-07 1.363250409771533549e-11 3.761981047239428883e-05
1.581000000000000021e-09 1.470619631082054101e-06 5.726014178088476303e-11 6.095350986710739404e-05
3.971999999999999932e-09 3.694861084648016046e-06 2.210019573374265380e-10 8.628023653304385055e-05
5.000000000000000105e-09 4.651201787816927976e-06 3.071485916280120014e-10 9.387863480799757518e-05
9.975999999999999465e-09 9.280587964640925786e-06 8.385361004129998845e-10 1.356922228656245837e-04
1.989999999999999952e-08 1.851419242998081003e-05 2.287763168863418088e-09 1.782101978513718314e-04
3.972999999999999908e-08 3.696699295748789187e-05 6.061583099087538954e-09 2.308134738384234820e-04
7.925999999999999637e-08 7.375765469301719828e-05 1.575347858094044765e-08 2.960532096713864875e-04
1.580999999999999930e-07 1.471491184379128891e-04 3.910429618672550719e-08 3.402859755131850544e-04
1.991000000000000027e-07 1.853209783927820692e-04 5.252045687899177454e-08 3.626488188833278743e-04
3.155999999999999938e-07 2.938002528823880299e-04 9.730770378831954314e-08 4.630767356912104081e-04
5.000999999999999849e-07 4.656344063839075714e-04 1.837494945860225819e-07 5.430301232045120323e-04
6.295999999999999732e-07 5.862651417037388971e-04 2.503103884558263872e-07 5.605192962670089638e-04
9.666999999999999941e-07 9.003386739730535665e-04 4.324450868778576936e-07 5.993081670211623108e-04
1.531999999999999901e-06 1.427170885631398036e-03 7.780217275717420968e-07 7.125938556504039095e-04
2.506999999999999883e-06 2.336134972129507662e-03 1.471005394641589826e-06 8.121876172121876309e-04
3.974000000000000407e-06 3.704315759716615697e-03 2.695705763844323844e-06 9.780674166779417152e-04
4.830000000000000343e-06 4.502887798316278223e-03 3.503988717694660908e-06 1.046253037768318664e-03
6.080999999999999885e-06 5.670217999231269741e-03 4.731126407333307547e-06 1.056224360839501646e-03
7.930000000000000308e-06 7.396012414119570652e-03 6.599662989063778187e-06 1.109203753630785610e-03
9.982000000000000313e-06 9.311815711689977113e-03 8.879881089227186733e-06 1.271216815433141075e-03
1.256999999999999993e-05 1.172874412604260098e-02 1.207676739913533738e-05 1.374195438212825332e-03
1.521999999999999997e-05 1.420427250933824909e-02 1.547541302213394990e-05 1.371610497379100249e-03
1.991000000000000080e-05 1.858690797761085312e-02 2.160710455847765458e-05 1.426578142835871997e-03
2.506999999999999883e-05 2.341050104039446925e-02 2.908031724375689851e-05 1.672007475975408053e-03
2.790999999999999875e-05 2.606604784714952258e-02 3.357009132255487721e-05 1.709425557744154774e-03
3.806999999999999973e-05 3.556967988784798945e-02 4.986781576435106434e-05 1.720407281314112165e-03
5.063000000000000145e-05 4.732434580343149871e-02 7.073400252905581275e-05 1.829889149838781265e-03
6.592000000000000583e-05 6.164112392498975052e-02 9.765037643900635188e-05 1.930242980462695823e-03
8.433000000000000066e-05 7.888776783401378612e-02 1.317235490470395893e-04 2.021055815200022837e-03
1.062000000000000064e-04 9.938561165478684845e-02 1.740088341640037047e-04 2.104789529260958983e-03
1.321000000000000126e-04 1.236720406455826121e-01 2.260189757651373944e-04 2.178291718403657477e-03
1.623999999999999901e-04 1.520974545104751274e-01 2.888169908545388338e-04 2.240170365918073281e-03
1.689999999999999879e-04 1.582907717069566844e-01 3.027354772999506964e-04 2.254509350360745651e-03
1.758999999999999930e-04 1.647661861691531171e-01 3.173785841705756782e-04 2.268169273277113179e-03
1.830000000000000029e-04 1.714298948183871907e-01 3.325196584577469103e-04 2.276170334580628063e-03
1.901999999999999882e-04 1.781880600978280049e-01 3.479577791899843742e-04 2.292561569242367037e-03
1.977000000000000079e-04 1.852284385240466902e-01 3.641242634600037713e-04 2.299943765467868384e-03
2.054000000000000053e-04 1.924572004474696396e-01 3.808304060475003897e-04 2.322187632288155723e-03
2.079000000000000119e-04 1.948043378760714872e-01 3.864137987380476553e-04 2.435429768083530178e-03
2.081999999999999921e-04 1.950859988578999005e-01 3.870314100985603909e-04 1.950065624557156818e-03
2.090999999999999868e-04 1.959309855029948977e-01 3.881261957135444685e-04 6.411875526909013856e-04
2.159999999999999919e-04 2.024093317906446865e-01 3.940874488768042125e-04 1.199166870571831411e-03
2.231000000000000019e-04 2.090756740932291913e-01 4.013938420547467825e-04 9.928616047829054436e-04
2.311000000000000066e-04 2.165873044433437034e-01 4.085241694843774404e-04 9.056166966301716637e-04
2.401000000000000085e-04 2.250381721984245909e-01 4.159700687886608468e-04 8.565463878902855599e-04
2.500000000000000052e-04 2.343344406330727658e-01 4.237602369176299592e-04 8.194318812157330018e-04
2.642999999999999733e-04 2.477629128650125634e-01 4.345596643180389446e-04 7.890063723638815647e-04
3.052999999999999941e-04 2.862671839140227270e-01 4.644058706720978241e-04 7.612775562167708662e-04
3.533000000000000224e-04 3.313503829113090826e-01 4.987577676308450197e-04 7.626578558207241024e-04
4.075999999999999871e-04 3.823564017794535141e-01 5.381334366106255759e-04 7.813048116943254948e-04
4.679999999999999915e-04 4.390986251953180042e-01 5.832692638200615834e-04 8.096035963157804938e-04
5.341000000000000261e-04 5.012024644415256081e-01 6.346556894078133086e-04 8.452514814113673558e-04
6.059000000000000366e-04 5.686690698184251325e-01 6.930641302632923034e-04 8.862253587289389486e-04
7.661000000000000275e-04 7.192254882508629654e-01 8.328184776562496576e-04 9.702780530519144065e-04
1.262000000000000101e-03 1.185459127778160093e+00 1.338484980802662205e-03 1.198863597978450275e-03
1.894999999999999983e-03 1.780909071169781921e+00 2.123481960401060308e-03 1.437771491635827115e-03
2.673000000000000029e-03 2.513147344746868850e+00 3.261860252001994032e-03 1.671524566936786766e-03
3.605999999999999830e-03 3.391736073717691369e+00 4.828136641022434151e-03 1.893900408978071038e-03
4.709999999999999777e-03 4.431905410739045870e+00 6.903512974832482635e-03 2.096551352830673849e-03
7.496000000000000059e-03 7.058993649504918366e+00 1.289742191321638018e-02 2.466596387205546859e-03
1.119999999999999989e-02 1.055540362104863661e+01 2.212077014004794340e-02 2.809304433764861584e-03
1.600000000000000033e-02 1.509117352747679952e+01 3.559566804390756900e-02 3.132325055719984222e-03
2.206999999999999934e-02 2.083310616724802244e+01 5.457322122755020599e-02 3.477840948757840792e-03
2.947999999999999926e-02 2.785007348564149154e+01 8.049103664263126956e-02 3.909302116317729670e-03
4.268000000000000266e-02 4.036707211535221518e+01 1.353887601042819133e-01 4.862066536253286525e-03
6.219999999999999835e-02 5.891246509830522626e+01 2.419691225623893105e-01 6.630786177272363080e-03
7.316999999999999893e-02 6.935151695866235855e+01 3.161896974764099033e-01 7.588671314871411888e-03
7.595999999999999974e-02 7.200836722020332559e+01 3.371250777904805096e-01 8.170805199905812125e-03
7.685877551020407761e-02 7.286441674600658303e+01 3.441968690254569863e-01 8.351108345541433456e-03
7.775755102040816935e-02 7.372054984232119068e+01 3.514183662915840722e-01 8.518919063359650656e-03
7.865632653061224722e-02 7.457676721400301290e+01 3.587792141068799623e-01 8.674951154585072363e-03
7.955510204081632508e-02 7.543306943491752747e+01 3.662696643492724946e-01 8.819918420442315887e-03
8.045387755102040295e-02 7.628945695924335269e+01 3.738805764768455830e-01 8.954534662155996805e-03
8.135265306122449469e-02 7.714593013227352003e+01 3.816034177690429408e-01 9.079513680950732427e-03
8.225142857142857256e-02 7.800248920074172077e+01 3.894302635852744943e-01 9.195569278051127921e-03
8.315020408163265042e-02 7.885913432270045575e+01 3.973537976377510827e-01 9.303415254681798863e-03
8.404897959183672829e-02 7.971586557697459341e+01 4.053673122757208147e-01 9.403765412067362564e-03
8.494775510204082003e-02 8.057268297221422415e+01 4.134647087786110786e-01 9.497333551432438070e-03
8.584653061224489790e-02 8.142958645556673503e+01 4.216404976558810747e-01 9.584833474001627079e-03
8.674530612244897576e-02 8.228657592098949181e+01 4.298897989516780038e-01 9.666978980999553842e-03
8.764408163265305363e-02 8.314365121722082108e+01 4.382083425526501763e-01 9.744483873650830463e-03
8.854285714285714537e-02 8.400081215542695645e+01 4.465924684975219328e-01 9.818061953180069051e-03
8.944163265306122323e-02 8.485805851654217236e+01 4.550391272872643667e-01 9.888427020811886917e-03
9.034040816326530110e-02 8.571539005831633062e+01 4.635458801949154384e-01 9.956292877770894431e-03
9.123918367346939284e-02 8.657280652208547167e+01 4.721108995743010794e-01 1.002237332528170891e-02
9.213795918367347071e-02 8.743030763927848170e+01 4.807329691671038407e-01 1.008738216456894071e-02
9.303673469387754857e-02 8.828789313767265412e+01 4.894114844079024973e-01 1.015203319685720716e-02
9.393551020408162644e-02 8.914556274741070752e+01 4.981464527269712228e-01 1.021704022337112210e-02
9.483428571428570431e-02 9.000331620679021682e+01 5.069384938507878191e-01 1.028311704533529589e-02
9.573306122448979605e-02 9.086115326783655632e+01 5.157888401003458689e-01 1.035097746397435105e-02
9.663183673469387391e-02 9.171907370166883311e+01 5.246993366875047915e-01 1.042133528051289275e-02
9.753061224489795178e-02 9.257707730366966814e+01 5.336724420097451738e-01 1.049490429617553830e-02
9.842938775510204352e-02 9.343516389846668346e+01 5.427112279438164322e-01 1.057239831218690675e-02
9.932816326530612139e-02 9.429333334473413686e+01 5.518193801388823205e-01 1.065453112977160499e-02
1.002269387755101993e-01 9.515158553982486467e+01 5.610011983098804889e-01 1.074201655015424861e-02
1.011257142857142910e-01 9.600992042423719397e+01 5.702615965319121072e-01 1.083556837455945838e-02
1.020244897959183689e-01 9.686833798592623168e+01 5.796061035365789316e-01 1.093590040421183948e-02
1.029232653061224467e-01 9.772683826446635180e+01 5.890408630112766719e-01 1.104372644033600748e-02
1.038220408163265246e-01 9.858542135506999671e+01 5.985726339025387865e-01 1.115976028415658142e-02
1.047208163265306025e-01 9.944408741247053740e+01 6.082087907246106484e-01 1.128471573689817341e-02
1.056195918367346942e-01 1.003028366546743086e+02 6.179573238745103003e-01 1.141930659978539556e-02
1.065183673469387721e-01 1.011616693665876028e+02 6.278268399549064016e-01 1.156424667404286691e-02
1.074171428571428499e-01 1.020205859035241502e+02 6.378265621062164659e-01 1.172024976089519784e-02
1.083159183673469417e-01 1.028795866945978048e+02 6.479663303493909954e-01 1.188802966156700044e-02
1.092146938775510195e-01 1.037386722460056063e+02 6.582566019409168412e-01 1.206830017728289378e-02
1.101134693877550974e-01 1.045978431442058110e+02 6.687084517416329588e-01 1.226177510926748648e-02
1.110122448979591891e-01 1.054571000589951240e+02 6.793335726010045761e-01 1.246916825874539760e-02
1.119110204081632531e-01 1.063164437464892131e+02 6.901442757585621868e-01 1.269119342694123749e-02
1.128097959183673449e-01 1.071758750520116337e+02 7.011534912642630735e-01 1.292856441507962348e-02
1.137085714285714227e-01 1.080353949128925564e+02 7.123747684195745888e-01 1.318199502438516940e-02
1.146073469387755006e-01 1.088950043611844904e+02 7.238222762411415934e-01 1.345219905608248563e-02
1.155061224489795924e-01 1.097547045262947876e+02 7.355108039489284266e-01 1.373989031139619815e-02
1.164048979591836702e-01 1.106144966375411940e+02 7.474557614807806338e-01 1.404578259155090172e-02
1.173036734693877481e-01 1.114743820266321563e+02 7.596731800353916375e-01 1.437058969777122580e-02
1.182024489795918398e-01 1.123343621300752346e+02 7.721797126456931837e-01 1.471502543128178075e-02
1.191012244897959177e-01 1.131944384915173174e+02 7.849926347847336894e-01 1.507980359330717522e-02
1.199999999999999956e-01 1.140546127640180458e+02 7.981298450061434790e-01 1.546563798507202998e-02
1.227296854326779957e-01 1.166676862667940071e+02 8.402073164491737911e-01 1.673949799782373585e-02
1.254593708653559958e-01 1.192817333814175385e+02 8.857006981485526786e-01 1.806712459716262528e-02
1.281890562980339821e-01 1.218968088061019017e+02 9.347539077682214259e-01 1.944833155460016366e-02
1.309187417307119683e-01 1.245129679727209293e+02 9.875107200263724128e-01 2.088288801987052412e-02
1.336484271633899823e-01 1.271302669969307999e+02 1.044114670462368499e+00 2.237051904345024878e-02
1.363781125960679685e-01 1.297487626304142623e+02 1.104708960239223270e+00 2.391090608850871338e-02
1.391077980287459548e-01 1.323685122150525615e+02 1.169436361893472665e+00 2.550368753319293830e-02
1.418374834614239688e-01 1.349895736388546368e+02 1.238439125947021546e+00 2.714845916387519445e-02
1.445671688941019550e-01 1.376120052934895455e+02 1.311858888297687153e+00 2.884477465974275706e-02
1.472968543267799413e-01 1.402358660332859301e+02 1.389836578306705483e+00 3.059214606889511245e-02
1.500265397594579553e-01 1.428612151355725359e+02 1.472512327502493390e+00 3.239004427592103580e-02
1.527562251921359415e-01 1.454881122622506666e+02 1.560025378820571795e+00 3.423789946075930096e-02
1.554859106248139278e-01 1.481166174224957786e+02 1.652513996299764365e+00 3.613510154849886719e-02
1.582155960574919140e-01 1.507467909364962395e+02 1.750115375154624342e+00 3.808100064964038689e-02
1.609452814901699280e-01 1.533786934001470570e+02 1.852965552143621464e+00 4.007490749022772636e-02
1.636749669228479143e-01 1.560123856506200184e+02 1.961199316151883920e+00 4.211609383115332006e-02
1.664046523555259283e-01 1.586479287327414625e+02 2.074950118906358831e+00 4.420379287585415179e-02
1.691343377882039145e-01 1.612853838661121983e+02 2.194349985740040587e+00 4.633719966553539321e-02
1.718640232208819008e-01 1.639248124129099153e+02 2.319529426320621646e+00 4.851547146099226965e-02
1.745937086535598870e-01 1.665662758463186321e+02 2.450617345257332325e+00 5.073772811004085420e-02
1.773233940862379010e-01 1.692098357195340554e+02 2.587740952498115643e+00 5.300305239952092518e-02
1.800530795189158872e-01 1.718555536352946262e+02 2.731025673427450062e+00 5.531049039078984875e-02
1.827827649515939012e-01 1.745034912158970428e+02 2.880595058573257816e+00 5.765905173759319768e-02
1.855124503842718875e-01 1.771537100736486821e+02 3.036570692829267948e+00 6.004770998516859720e-02
1.882421358169498737e-01 1.798062717817211080e+02 3.199072104097180791e+00 6.247540284941791727e-02
1.909718212496278600e-01 1.824612378453636836e+02 3.368216671250736205e+00 6.494103247496535447e-02
1.937015066823058740e-01 1.851186696734428665e+02 3.544119531321610506e+00 6.744346567090822586e-02
1.964311921149838602e-01 1.877786285502711507e+02 3.726893485804738226e+00 6.998153412305889443e-02
1.991608775476618742e-01 1.904411756076943334e+02 3.916648905978377115e+00 7.255403458147517692e-02
2.018905629803398605e-01 1.931063717974025451e+02 4.113493637131787395e+00 7.515972902207633533e-02
2.046202484130178467e-01 1.957742778634373053e+02 4.317532901591106587e+00 7.779734478114661012e-02
2.073499338456958330e-01 1.984449543148631960e+02 4.528869200431492104e+00 8.046557466153675398e-02
2.100796192783738470e-01 2.011184613985739134e+02 4.747602213761249246e+00 8.316307700938363467e-02
2.128093047110518332e-01 2.037948590722084532e+02 4.973828699461183334e+00 8.588847576018346364e-02
2.155389901437298472e-01 2.064742069771458830e+02 5.207642390260052601e+00 8.864036045306791789e-02
2.182686755764078335e-01 2.091565644115540579e+02 5.449133889024467159e+00 9.141728621215164385e-02
2.209983610090858197e-01 2.118419903034651099e+02 5.698390562139314497e+00 9.421777369384111422e-02
2.237280464417638060e-01 2.145305431838523020e+02 5.955496430852270429e+00 9.704030899901511242e-02
2.264577318744418200e-01 2.172222811596804206e+02 6.220532060453704659e+00 9.988334354901226564e-02
2.291874173071198062e-01 2.199172618869085625e+02 6.493574447160884944e+00 1.027452939243872904e-01
2.319171027397978202e-01 2.226155425434153017e+02 6.774696902573192681e+00 1.056245416654239266e-01
2.346467881724758064e-01 2.253171798018244374e+02 7.063968935562704665e+00 1.085194330334224438e-01
2.373764736051537927e-01 2.280222298022056577e+02 7.361456131462486674e+00 1.114282787318110618e-01
2.401061590378317789e-01 2.307307481246251086e+02 7.667220028412677912e+00 1.143493535861613702e-01
2.428358444705097929e-01 2.334427897615222207e+02 7.981317990722542000e+00 1.172808961822246060e-01
2.455655299031877792e-01 2.361584090898860211e+02 8.303803079104637774e+00 1.202211084611388009e-01
2.482952153358657654e-01 2.388776598432096137e+02 8.634723917635508172e+00 1.231681552710005428e-01
2.510249007685437794e-01 2.416005950831959126e+02 8.974124557295466431e+00 1.261201638740294395e-01
2.537545862012217657e-01 2.443272671711904991e+02 9.322044335938526771e+00 1.290752234086034456e-01
3.302085742379315403e-01 3.230256528733526125e+02 2.804451115807123784e+01 3.393124184599306536e-01
4.066625622746412594e-01 4.070635845131819792e+02 5.245534135468227532e+01 2.458694371127668754e-01
4.831165503113510340e-01 4.957043135170748656e+02 7.958772856416838692e+01 3.627361121298717794e-01
5.595705383480608086e-01 5.895394704226791873e+02 1.193248778986957177e+02 4.796027871469766835e-01
6.360245263847705832e-01 6.896963895892961318e+02 1.734952005629543805e+02 5.964694621640815875e-01
7.124785144214802468e-01 7.972702752708649996e+02 2.443044866929118371e+02 7.133361371811863805e-01
7.889325024581901324e-01 9.133765691217876110e+02 3.343610647182925959e+02 8.302028121982913955e-01
8.653864904948997960e-01 1.039155470882569034e+03 4.406373014352151927e+02 8.579795669527393587e-01
9.418404785316096817e-01 1.174583783942768150e+03 5.366242238519797638e+02 5.745272653382770267e-01
1.018294466568319345e+00 1.316461393360202010e+03 6.060832063668601677e+02 4.095163751734325341e-01
1.094748454605029231e+00 1.462943247072580562e+03 6.634990995421525213e+02 3.752073150465333184e-01
1.171202442641738894e+00 1.613313262978686225e+03 7.172908021464506874e+02 3.408982549196341583e-01
1.247656430678448558e+00 1.767066086076147485e+03 7.670267805204350680e+02 3.065891947927349981e-01
1.324110418715158444e+00 1.923733881966703848e+03 8.123385088888293240e+02 2.722801346658357269e-01
1.400564406751868329e+00 2.082883293254449654e+03 8.529145240296661541e+02 2.379710745389364834e-01
1.477018394788577993e+00 2.244112753959776455e+03 8.884950851776654872e+02 2.036620144120373233e-01
1.553472382825287657e+00 2.407057207940734770e+03 9.192054400608369633e+02 1.734659119672810890e-01
1.629926370861997542e+00 2.571498741741112099e+03 9.502507025970564882e+02 2.039671350422612717e-01
1.706380358898707206e+00 2.737518876958872625e+03 9.866594432354708033e+02 2.344683581172413989e-01
1.782834346935417091e+00 2.905290313257313755e+03 1.028571082552681446e+03 2.649695811922215816e-01
1.859288334972126755e+00 3.074977185610502147e+03 1.076138458197087402e+03 2.954708042672017365e-01
1.935742323008836641e+00 3.246736663531421982e+03 1.129527274692153469e+03 3.259720273421818915e-01
2.012196311045546082e+00 3.420720278407212390e+03 1.188915704897982550e+03 3.564732504171619354e-01
2.088650299082255746e+00 3.597075035925410702e+03 1.254494114414623255e+03 3.869744734921420348e-01
