# density  energy_density  pressure   sound_speed_squared  [All in nuclear units]
2.720000000000000022e-14 2.529924618736292620e-11 1.061056609100270887e-19 3.766610435412189122e-08
1.269999999999999890e-13 1.181251617980081254e-10 4.870113551826584858e-18 6.497781477172163475e-08
6.929999999999999754e-13 6.445728594625782745e-10 1.018299070687946017e-16 3.033770597342807186e-07
6.295000000000000137e-12 5.855111460395753757e-09 5.487150723824490656e-15 1.763710043904196507e-06
1.581000000000000150e-11 1.470523320212576141e-08 2.904239460150760759e-14 3.559434472327477622e-06
3.971999999999999958e-11 3.694456170323160790e-08 1.439340266754906811e-13 6.772854871245677111e-06
9.975999999999999982e-11 9.278976412613005154e-08 6.812143616221268841e-13 1.246890511177539320e-05
2.505999999999999928e-10 2.330928829758143313e-07 3.107749196951638608e-12 2.212095130576091967e-05
6.294000000000000186e-10 5.854398883216247602e-07 1.363250409771533549e-11 3.761981047239428883e-05
1.581000000000000021e-09 1.470619631082054101e-06 5.726014178088476303e-11 6.095350986710739404e-05
3.971999999999999932e-09 3.694861084648016046e-06 2.210019573374265380e-10 8.628023653304385055e-05
5.000000000000000105e-09 4.651201787816927976e-06 3.071485916280120014e-10 9.387863480799757518e-05
9.975999999999999465e-09 9.280587964640925786e-06 8.385361004129998845e-10 1.356922228656245837e-04
1.989999999999999952e-08 1.851419242998081003e-05 2.287763168863418088e-09 1.782101978513718314e-04
3.972999999999999908e-08 3.696699295748789187e-05 6.061583099087538954e-09 2.308134738384234820e-04
7.925999999999999637e-08 7.375765469301719828e-05 1.575347858094044765e-08 2.960532096713864875e-04
1.580999999999999930e-07 1.471491184379128891e-04 3.910429618672550719e-08 3.402859755131850544e-04
1.991000000000000027e-07 1.853209783927820692e-04 5.252045687899177454e-08 3.626488188833278743e-04
3.155999999999999938e-07 2.938002528823880299e-04 9.730770378831954314e-08 4.630767356912104081e-04
5.000999999999999849e-07 4.656344063839075714e-04 1.837494945860225819e-07 5.430301232045120323e-04
6.295999999999999732e-07 5.862651417037388971e-04 2.503103884558263872e-07 5.605192962670089638e-04
9.666999999999999941e-07 9.003386739730535665e-04 4.324450868778576936e-07 5.993081670211623108e-04
1.531999999999999901e-06 1.427170885631398036e-03 7.780217275717420968e-07 7.125938556504039095e-04
2.506999999999999883e-06 2.336134972129507662e-03 1.471005394641589826e-06 8.121876172121876309e-04
3.974000000000000407e-06 3.704315759716615697e-03 2.695705763844323844e-06 9.780674166779417152e-04
4.830000000000000343e-06 4.502887798316278223e-03 3.503988717694660908e-06 1.046253037768318664e-03
6.080999999999999885e-06 5.670217999231269741e-03 4.731126407333307547e-06 1.056224360839501646e-03
7.930000000000000308e-06 7.396012414119570652e-03 6.599662989063778187e-06 1.109203753630785610e-03
9.982000000000000313e-06 9.311815711689977113e-03 8.879881089227186733e-06 1.271216815433141075e-03
1.256999999999999993e-05 1.172874412604260098e-02 1.207676739913533738e-05 1.374195438212825332e-03
1.521999999999999997e-05 1.420427250933824909e-02 1.547541302213394990e-05 1.371610497379100249e-03
1.991000000000000080e-05 1.858690797761085312e-02 2.160710455847765458e-05 1.426578142835871997e-03
2.506999999999999883e-05 2.341050104039446925e-02 2.908031724375689851e-05 1.672007475975408053e-03
2.790999999999999875e-05 2.606604784714952258e-02 3.357009132255487721e-05 1.709425557744154774e-03
3.806999999999999973e-05 3.556967988784798945e-02 4.986781576435106434e-05 1.720407281314112165e-03
5.063000000000000145e-05 4.732434580343149871e-02 7.073400252905581275e-05 1.829889149838781265e-03
6.592000000000000583e-05 6.164112392498975052e-02 9.765037643900635188e-05 1.930242980462695823e-03
8.433000000000000066e-05 7.888776783401378612e-02 1.317235490470395893e-04 2.021055815200022837e-03
1.062000000000000064e-04 9.938561165478684845e-02 1.740088341640037047e-04 2.104789529260958983e-03
1.321000000000000126e-04 1.236720406455826121e-01 2.260189757651373944e-04 2.178291718403657477e-03
1.623999999999999901e-04 1.520974545104751274e-01 2.888169908545388338e-04 2.240170365918073281e-03
1.689999999999999879e-04 1.582907717069566844e-01 3.027354772999506964e-04 2.254509350360745651e-03
1.758999999999999930e-04 1.647661861691531171e-01 3.173785841705756782e-04 2.268169273277113179e-03
1.830000000000000029e-04 1.714298948183871907e-01 3.325196584577469103e-04 2.276170334580628063e-03
1.901999999999999882e-04 1.781880600978280049e-01 3.479577791899843742e-04 2.292561569242367037e-03
1.977000000000000079e-04 1.852284385240466902e-01 3.641242634600037713e-04 2.299943765467868384e-03
2.054000000000000053e-04 1.924572004474696396e-01 3.808304060475003897e-04 2.322187632288155723e-03
2.079000000000000119e-04 1.948043378760714872e-01 3.864137987380476553e-04 2.435429768083530178e-03
2.081999999999999921e-04 1.950859988578999005e-01 3.870314100985603909e-04 1.950065624557156818e-03
2.090999999999999868e-04 1.959309855029948977e-01 3.881261957135444685e-04 6.411875526909013856e-04
2.159999999999999919e-04 2.024093317906446865e-01 3.940874488768042125e-04 1.199166870571831411e-03
2.231000000000000019e-04 2.090756740932291913e-01 4.013938420547467825e-04 9.928616047829054436e-04
2.311000000000000066e-04 2.165873044433437034e-01 4.085241694843774404e-04 9.056166966301716637e-04
2.401000000000000085e-04 2.250381721984245909e-01 4.159700687886608468e-04 8.565463878902855599e-04
2.500000000000000052e-04 2.343344406330727658e-01 4.237602369176299592e-04 8.194318812157330018e-04
2.642999999999999733e-04 2.477629128650125634e-01 4.345596643180389446e-04 7.890063723638815647e-04
3.052999999999999941e-04 2.862671839140227270e-01 4.644058706720978241e-04 7.612775562167708662e-04
3.533000000000000224e-04 3.313503829113090826e-01 4.987577676308450197e-04 7.626578558207241024e-04
4.075999999999999871e-04 3.823564017794535141e-01 5.381334366106255759e-04 7.813048116943254948e-04
4.679999999999999915e-04 4.390986251953180042e-01 5.832692638200615834e-04 8.096035963157804938e-04
5.341000000000000261e-04 5.012024644415256081e-01 6.346556894078133086e-04 8.452514814113673558e-04
6.059000000000000366e-04 5.686690698184251325e-01 6.930641302632923034e-04 8.862253587289389486e-04
7.661000000000000275e-04 7.192254882508629654e-01 8.328184776562496576e-04 9.702780530519144065e-04
1.262000000000000101e-03 1.185459127778160093e+00 1.338484980802662205e-03 1.198863597978450275e-03
1.894999999999999983e-03 1.780909071169781921e+00 2.123481960401060308e-03 1.437771491635827115e-03
2.673000000000000029e-03 2.513147344746868850e+00 3.261860252001994032e-03 1.671524566936786766e-03
3.605999999999999830e-03 3.391736073717691369e+00 4.828136641022434151e-03 1.893900408978071038e-03
4.709999999999999777e-03 4.431905410739045870e+00 6.903512974832482635e-03 2.096551352830673849e-03
7.496000000000000059e-03 7.058993649504918366e+00 1.289742191321638018e-02 2.466596387205546859e-03
1.119999999999999989e-02 1.055540362104863661e+01 2.212077014004794340e-02 2.809304433764861584e-03
1.600000000000000033e-02 1.509117352747679952e+01 3.559566804390756900e-02 3.132325055719984222e-03
2.206999999999999934e-02 2.083310616724802244e+01 5.457322122755020599e-02 3.477840948757840792e-03
2.947999999999999926e-02 2.785007348564149154e+01 8.049103664263126956e-02 3.909302116317729670e-03
4.268000000000000266e-02 4.036707211535221518e+01 1.353887601042819133e-01 4.862066536253286525e-03
6.219999999999999835e-02 5.891246509830522626e+01 2.419691225623893105e-01 6.630786177272363080e-03
7.316999999999999893e-02 6.935151695866235855e+01 3.161896974764099033e-01 7.588671314871411888e-03
7.595999999999999974e-02 7.200836722020332559e+01 3.371250777904805096e-01 8.170805199905812125e-03
7.685877551020407761e-02 7.286441682498036698e+01 3.442103840206127141e-01 8.382680522436930515e-03
7.775755102040816935e-02 7.372055036643982362e+01 3.514812111309440490e-01 8.602574154059659112e-03
7.865632653061224722e-02 7.457676905798746247e+01 3.589443646132741139e-01 8.830236756866805328e-03
7.955510204081632508e-02 7.543307416186952707e+01 3.666064397180006096e-01 9.065418992951186986e-03
8.045387755102040295e-02 7.628946698514133118e+01 3.744738214338288462e-01 9.307871524405609762e-03
8.135265306122449469e-02 7.714594887581660032e+01 3.825526844646900959e-01 9.557345013322891478e-03
8.225142857142857256e-02 7.800252121918617831e+01 3.908489932033822334e-01 9.813590121795829138e-03
8.315020408163265042e-02 7.885918543429761485e+01 3.993685017014995120e-01 1.007635751191724577e-02
8.404897959183672829e-02 7.971594297058638290e+01 4.081167536352580671e-01 1.034539784577994878e-02
8.494775510204082003e-02 8.057279530465116579e+01 4.170990822668706466e-01 1.062046178547675426e-02
8.584653061224489790e-02 8.142974393716458792e+01 4.263206104011597053e-01 1.090129999310045922e-02
8.674530612244897576e-02 8.228679038991377581e+01 4.357862503371386365e-01 1.118766313074388494e-02
8.764408163265305363e-02 8.314393620296223730e+01 4.455007038143192211e-01 1.147930186049984057e-02
8.854285714285714537e-02 8.400118293192784336e+01 4.554684619535412371e-01 1.177596684446114220e-02
8.944163265306122323e-02 8.485853214537087297e+01 4.656938051921452049e-01 1.207740874472059203e-02
9.034040816326530110e-02 8.571598542228610995e+01 4.761808032133414970e-01 1.238337822337099922e-02
9.123918367346939284e-02 8.657354434969450097e+01 4.869333148696496916e-01 1.269362594250518506e-02
9.213795918367347071e-02 8.743121052032783780e+01 4.979549881003110801e-01 1.300790256421595521e-02
9.303673469387754857e-02 8.828898553040474440e+01 5.092492598425996109e-01 1.332595875059611364e-02
9.393551020408162644e-02 8.914687097748965527e+01 5.208193559369738157e-01 1.364754516373848335e-02
9.483428571428570431e-02 9.000486845843457218e+01 5.326682910260384096e-01 1.397241246573586830e-02
9.573306122448979605e-02 9.086297956739667825e+01 5.447988684472986343e-01 1.430031131868108457e-02
9.663183673469387391e-02 9.172120589393004764e+01 5.572136801197097311e-01 1.463099238466693784e-02
9.753061224489795178e-02 9.257954902114676088e+01 5.699151064240429720e-01 1.496420632578623552e-02
9.842938775510204352e-02 9.343801052394535134e+01 5.829053160771004993e-01 1.529970380413180064e-02
9.932816326530612139e-02 9.429659196730196413e+01 5.961862659998299341e-01 1.563723548179643194e-02
1.002269387755101993e-01 9.515529490462283491e+01 6.097597011794049227e-01 1.597655202087294724e-02
1.011257142857142910e-01 9.601412087615426572e+01 6.236271545253455617e-01 1.631740408345416088e-02
1.020244897959183689e-01 9.687307140744761114e+01 6.377899467197697403e-01 1.665954233163286641e-02
1.029232653061224467e-01 9.773214800787788192e+01 6.522491860618792048e-01 1.700271742750188858e-02
1.038220408163265246e-01 9.859135216921148981e+01 6.670057683067900367e-01 1.734668003315403828e-02
1.047208163265306025e-01 9.945068536422330396e+01 6.820603764988326656e-01 1.769118081068212986e-02
1.056195918367346942e-01 1.003101490453588696e+02 6.974134807994554208e-01 1.803597042217896379e-02
1.065183673469387721e-01 1.011697446434412626e+02 7.130653383098726206e-01 1.838079952973735789e-02
1.074171428571428499e-01 1.020294735664196963e+02 7.290159928886132956e-01 1.872541879545011612e-02
1.083159183673469417e-01 1.028893371981587848e+02 7.452652749641273111e-01 1.906957888141006321e-02
1.092146938775510195e-01 1.037493368972660193e+02 7.618128013426185285e-01 1.941303044970999619e-02
1.101134693877550974e-01 1.046094739959567477e+02 7.786579750112859744e-01 1.975552416244272594e-02
1.110122448979591891e-01 1.054697497989541120e+02 7.957999849371509837e-01 2.009681068170107721e-02
1.119110204081632531e-01 1.063301655824232625e+02 8.132378058616646088e-01 2.043664066957784353e-02
1.128097959183673449e-01 1.071907225929379024e+02 8.309701980912972408e-01 2.077476478816584968e-02
1.137085714285714227e-01 1.080514220464784785e+02 8.489957072843039576e-01 2.111093369955790305e-02
1.146073469387755006e-01 1.089122651274598752e+02 8.673126642338896408e-01 2.144489806584680414e-02
1.155061224489795924e-01 1.097732529877884957e+02 8.859191846479800292e-01 2.177640854912537768e-02
1.164048979591836702e-01 1.106343867459457755e+02 9.048131689258241961e-01 2.210521581148643111e-02
1.173036734693877481e-01 1.114956674861000465e+02 9.239923019316588215e-01 2.243107051502276836e-02
1.182024489795918398e-01 1.123570962572424321e+02 9.434540527656612996e-01 2.275372332182720725e-02
1.191012244897959177e-01 1.132186740723475111e+02 9.631956745324316005e-01 2.307292489399255866e-02
1.199999999999999956e-01 1.140804019075584961e+02 9.832142041072485794e-01 2.338842589361162655e-02
1.230484648345172155e-01 1.170043438335738557e+02 1.053145500553668290e+00 2.444488369675630601e-02
1.260969296690344355e-01 1.199300574280999854e+02 1.126252063344024723e+00 2.553003972019655954e-02
1.291453945035516693e-01 1.228575777111753098e+02 1.202624189379428721e+00 2.664496953837799595e-02
1.321938593380688753e-01 1.257869402229397195e+02 1.282355760982655912e+00 2.779084866941721604e-02
1.352423241725861092e-01 1.287181810738991601e+02 1.365544557272313497e+00 2.896895255595305710e-02
1.382907890071033152e-01 1.316513369976951537e+02 1.452292567268588241e+00 3.018065647260249895e-02
1.413392538416205491e-01 1.345864454061423316e+02 1.542706304623546743e+00 3.142743536320297126e-02
1.443877186761377551e-01 1.375235444463210968e+02 1.636897123880820981e+00 3.271086360993791936e-02
1.474361835106549889e-01 1.404626730595402933e+02 1.734981538178913540e+00 3.403261473548441912e-02
1.504846483451721950e-01 1.434038710420065286e+02 1.837081538319465857e+00 3.539446103848320480e-02
1.535331131796894288e-01 1.463471791070525683e+02 1.943324913127166820e+00 3.679827316189326902e-02
1.565815780142066349e-01 1.492926389487950587e+02 2.053845571031577499e+00 3.824601959314114646e-02
1.596300428487238687e-01 1.522402933071075779e+02 2.168783862803457030e+00 3.973976609439530683e-02
1.626785076832411026e-01 1.551901860338001882e+02 2.288286905379149694e+00 4.128167506077964205e-02
1.657269725177583086e-01 1.581423621599176954e+02 2.412508906706606560e+00 4.287400480387777019e-02
1.687754373522755147e-01 1.610968679640669166e+02 2.541611491545612722e+00 4.451910875746602214e-02
1.718239021867927485e-01 1.640537510416993996e+02 2.675764028153002627e+00 4.621943460204128856e-02
1.748723670213099823e-01 1.670130603752789398e+02 2.815143955781122642e+00 4.797752330437622670e-02
1.779208318558271884e-01 1.699748464052698012e+02 2.959937112914630131e+00 4.979600806803652358e-02
1.809692966903443945e-01 1.729391611018878052e+02 3.110338066166951076e+00 5.167761319052713992e-02
1.840177615248616283e-01 1.759060580375602285e+02 3.266550439753439061e+00 5.362515282249793319e-02
1.870662263593788621e-01 1.788755924600439187e+02 3.428787245453543520e+00 5.564152962423055820e-02
1.901146911938960682e-01 1.818478213661555003e+02 3.597271212969123333e+00 5.772973331444697376e-02
1.931631560284133020e-01 1.848228035760713226e+02 3.772235120580476053e+00 5.989283910632465374e-02
1.962116208629305358e-01 1.878005998081530947e+02 3.953922125995733783e+00 6.213400602547392709e-02
1.992600856974477419e-01 1.907812727542630853e+02 4.142586097283081692e+00 6.445647510453048068e-02
2.023085505319649480e-01 1.937648871555305732e+02 4.338491943768696402e+00 6.686356744893785786e-02
2.053570153664821818e-01 1.967515098785339660e+02 4.541915946776504676e+00 6.935868216844254253e-02
2.084054802009994156e-01 1.997412099918645367e+02 4.753146090078836927e+00 7.194529416880184047e-02
2.114539450355166217e-01 2.027340588430388379e+02 4.972482389919765211e+00 7.462695179820490188e-02
2.145024098700338278e-01 2.057301301357266539e+02 5.200237224465425356e+00 7.740727434293949438e-02
2.175508747045510616e-01 2.087295000072636242e+02 5.436735662527926394e+00 8.028994936689626272e-02
2.205993395390682954e-01 2.117322471064158549e+02 5.682315791401617133e+00 8.327872988959102163e-02
2.236478043735855015e-01 2.147384526713679520e+02 5.937329043642450621e+00 8.637743139750779509e-02
2.266962692081027075e-01 2.177482006079013672e+02 6.202140522613004414e+00 8.958992868371618012e-02
2.297447340426199414e-01 2.207615775677328429e+02 6.477129326607407478e+00 9.292015251090234018e-02
2.327931988771371752e-01 2.237786730269829150e+02 6.762688871362009024e+00 9.637208609317381158e-02
2.358416637116543813e-01 2.267995793647436642e+02 7.059227210749120296e+00 9.994976139225222878e-02
2.388901285461715873e-01 2.298243919417126335e+02 7.367167355442506782e+00 1.036572552239615891e-01
2.419385933806888211e-01 2.328532091788637786e+02 7.686947589334617525e+00 1.074986851712458197e-01
2.449870582152060550e-01 2.358861326361209478e+02 8.019021783476814491e+00 1.114782053003214174e-01
2.480355230497232610e-01 2.389232670910043339e+02 8.363859707305083546e+00 1.156000016769760386e-01
2.510839878842404671e-01 2.419647206172128904e+02 8.721947336904849024e+00 1.198682876804720437e-01
2.541324527187577287e-01 2.450106046631144920e+02 9.093787160059724428e+00 1.242872991130051785e-01
2.571809175532749348e-01 2.480610341301017172e+02 9.479898477820183800e+00 1.288612891031979957e-01
2.602293823877921408e-01 2.511161274507877579e+02 9.880817702319509621e+00 1.335945228026846066e-01
2.632778472223094024e-01 2.541760066669973241e+02 1.029709865055539275e+01 1.384912718754569283e-01
2.663263120568266085e-01 2.572407975075224158e+02 1.072931283384715684e+01 1.435558087803058269e-01
2.693747768913438145e-01 2.603106294656023465e+02 1.117804974267002827e+01 1.487924008473938131e-01
3.455099855262143693e-01 3.390393583132923254e+02 2.765312306928201735e+01 2.664868201955255533e-01
4.216451941610849241e-01 4.224674962938870522e+02 5.497995013946666631e+01 3.841812395436573491e-01
4.977804027959554234e-01 5.118536167666886172e+02 9.496518892312990090e+01 5.047778901452901756e-01
5.739156114308259227e-01 6.081485041015922661e+02 1.425868176023019771e+02 4.859179193802414254e-01
6.500508200656964775e-01 7.108631791913300049e+02 1.914634454844339473e+02 4.670579486151926196e-01
7.261860287005670322e-01 8.193586882716078890e+02 2.410579189573050485e+02 4.481979778501438694e-01
8.023212373354375870e-01 9.331106170963629438e+02 2.920620057593347383e+02 4.488082683285255503e-01
8.784564459703081418e-01 1.051979653376510441e+03 3.526577687451115821e+02 5.668898177117489556e-01
9.545916546051786966e-01 1.176151439965627105e+03 4.020745218526500366e+02 2.369104321345835706e-01
1.030726863240049251e+00 1.302866874409482762e+03 4.221148224852921089e+02 8.052055034404860534e-02
1.106862071874919806e+00 1.430683103060049461e+03 4.332732899126271491e+02 9.404185847540871834e-02
1.182997280509790361e+00 1.559327970509640181e+03 4.462437485707475844e+02 1.075631666067688452e-01
1.259132489144660916e+00 1.688865781300112303e+03 4.610559436118254553e+02 1.210844747381289721e-01
1.335267697779531471e+00 1.819354904762598835e+03 4.777414737829107594e+02 1.346057828694890990e-01
1.411402906414402025e+00 1.950848894088907400e+03 4.963336276070072586e+02 1.481270910008491981e-01
1.487538115049272580e+00 2.083397355393157795e+03 5.168672568014004582e+02 1.616483991322093250e-01
1.563673323684143135e+00 2.217046632618195872e+03 5.393786776389315492e+02 1.751697072635694519e-01
1.639808532319013690e+00 2.351840354449019287e+03 5.639055936458378255e+02 1.886910153949295788e-01
1.715943740953884245e+00 2.487819876231327726e+03 5.904870348486692819e+02 2.022123235262897056e-01
1.792078949588754799e+00 2.625024640899362566e+03 6.191633100406181711e+02 2.157336316576498048e-01
1.868214158223625354e+00 2.763492476651586912e+03 6.499759694244623915e+02 2.292549397890099594e-01
1.944349366858495909e+00 2.903259844670410985e+03 6.829677756256452312e+02 2.427762479203700585e-01
2.020484575493366464e+00 3.044362046982137144e+03 7.181826815328315661e+02 2.562975560517301576e-01
2.096619784128236574e+00 3.186833402214404487e+03 7.556658137662475383e+02 2.698188641830902013e-01
