# density  energy_density  pressure   sound_speed_squared  [All in nuclear units]
2.720000000000000022e-14 2.529924618736292620e-11 1.061056609100270887e-19 3.766610435412189122e-08
1.269999999999999890e-13 1.181251617980081254e-10 4.870113551826584858e-18 6.497781477172163475e-08
6.929999999999999754e-13 6.445728594625782745e-10 1.018299070687946017e-16 3.033770597342807186e-07
6.295000000000000137e-12 5.855111460395753757e-09 5.487150723824490656e-15 1.763710043904196507e-06
1.581000000000000150e-11 1.470523320212576141e-08 2.904239460150760759e-14 3.559434472327477622e-06
3.971999999999999958e-11 3.694456170323160790e-08 1.439340266754906811e-13 6.772854871245677111e-06
9.975999999999999982e-11 9.278976412613005154e-08 6.812143616221268841e-13 1.246890511177539320e-05
2.505999999999999928e-10 2.330928829758143313e-07 3.107749196951638608e-12 2.212095130576091967e-05
6.294000000000000186e-10 5.854398883216247602e-07 1.363250409771533549e-11 3.761981047239428883e-05
1.581000000000000021e-09 1.470619631082054101e-06 5.726014178088476303e-11 6.095350986710739404e-05
3.971999999999999932e-09 3.694861084648016046e-06 2.210019573374265380e-10 8.628023653304385055e-05
5.000000000000000105e-09 4.651201787816927976e-06 3.071485916280120014e-10 9.387863480799757518e-05
9.975999999999999465e-09 9.280587964640925786e-06 8.385361004129998845e-10 1.356922228656245837e-04
1.989999999999999952e-08 1.851419242998081003e-05 2.287763168863418088e-09 1.782101978513718314e-04
3.972999999999999908e-08 3.696699295748789187e-05 6.061583099087538954e-09 2.308134738384234820e-04
7.925999999999999637e-08 7.375765469301719828e-05 1.575347858094044765e-08 2.960532096713864875e-04
1.580999999999999930e-07 1.471491184379128891e-04 3.910429618672550719e-08 3.402859755131850544e-04
1.991000000000000027e-07 1.853209783927820692e-04 5.252045687899177454e-08 3.626488188833278743e-04
3.155999999999999938e-07 2.938002528823880299e-04 9.730770378831954314e-08 4.630767356912104081e-04
5.000999999999999849e-07 4.656344063839075714e-04 1.837494945860225819e-07 5.430301232045120323e-04
6.295999999999999732e-07 5.862651417037388971e-04 2.503103884558263872e-07 5.605192962670089638e-04
9.666999999999999941e-07 9.003386739730535665e-04 4.324450868778576936e-07 5.993081670211623108e-04
1.531999999999999901e-06 1.427170885631398036e-03 7.780217275717420968e-07 7.125938556504039095e-04
2.506999999999999883e-06 2.336134972129507662e-03 1.471005394641589826e-06 8.121876172121876309e-04
3.974000000000000407e-06 3.704315759716615697e-03 2.695705763844323844e-06 9.780674166779417152e-04
4.830000000000000343e-06 4.502887798316278223e-03 3.503988717694660908e-06 1.046253037768318664e-03
6.080999999999999885e-06 5.670217999231269741e-03 4.731126407333307547e-06 1.056224360839501646e-03
7.930000000000000308e-06 7.396012414119570652e-03 6.599662989063778187e-06 1.109203753630785610e-03
9.982000000000000313e-06 9.311815711689977113e-03 8.879881089227186733e-06 1.271216815433141075e-03
1.256999999999999993e-05 1.172874412604260098e-02 1.207676739913533738e-05 1.374195438212825332e-03
1.521999999999999997e-05 1.420427250933824909e-02 1.547541302213394990e-05 1.371610497379100249e-03
1.991000000000000080e-05 1.858690797761085312e-02 2.160710455847765458e-05 1.426578142835871997e-03
2.506999999999999883e-05 2.341050104039446925e-02 2.908031724375689851e-05 1.672007475975408053e-03
2.790999999999999875e-05 2.606604784714952258e-02 3.357009132255487721e-05 1.709425557744154774e-03
3.806999999999999973e-05 3.556967988784798945e-02 4.986781576435106434e-05 1.720407281314112165e-03
5.063000000000000145e-05 4.732434580343149871e-02 7.073400252905581275e-05 1.829889149838781265e-03
6.592000000000000583e-05 6.164112392498975052e-02 9.765037643900635188e-05 1.930242980462695823e-03
8.433000000000000066e-05 7.888776783401378612e-02 1.317235490470395893e-04 2.021055815200022837e-03
1.062000000000000064e-04 9.938561165478684845e-02 1.740088341640037047e-04 2.104789529260958983e-03
1.321000000000000126e-04 1.236720406455826121e-01 2.260189757651373944e-04 2.178291718403657477e-03
1.623999999999999901e-04 1.520974545104751274e-01 2.888169908545388338e-04 2.240170365918073281e-03
1.689999999999999879e-04 1.582907717069566844e-01 3.027354772999506964e-04 2.254509350360745651e-03
1.758999999999999930e-04 1.647661861691531171e-01 3.173785841705756782e-04 2.268169273277113179e-03
1.830000000000000029e-04 1.714298948183871907e-01 3.325196584577469103e-04 2.276170334580628063e-03
1.901999999999999882e-04 1.781880600978280049e-01 3.479577791899843742e-04 2.292561569242367037e-03
1.977000000000000079e-04 1.852284385240466902e-01 3.641242634600037713e-04 2.299943765467868384e-03
2.054000000000000053e-04 1.924572004474696396e-01 3.808304060475003897e-04 2.322187632288155723e-03
2.079000000000000119e-04 1.948043378760714872e-01 3.864137987380476553e-04 2.435429768083530178e-03
2.081999999999999921e-04 1.950859988578999005e-01 3.870314100985603909e-04 1.950065624557156818e-03
2.090999999999999868e-04 1.959309855029948977e-01 3.881261957135444685e-04 6.411875526909013856e-04
2.159999999999999919e-04 2.024093317906446865e-01 3.940874488768042125e-04 1.199166870571831411e-03
2.231000000000000019e-04 2.090756740932291913e-01 4.013938420547467825e-04 9.928616047829054436e-04
2.311000000000000066e-04 2.165873044433437034e-01 4.085241694843774404e-04 9.056166966301716637e-04
2.401000000000000085e-04 2.250381721984245909e-01 4.159700687886608468e-04 8.565463878902855599e-04
2.500000000000000052e-04 2.343344406330727658e-01 4.237602369176299592e-04 8.194318812157330018e-04
2.642999999999999733e-04 2.477629128650125634e-01 4.345596643180389446e-04 7.890063723638815647e-04
3.052999999999999941e-04 2.862671839140227270e-01 4.644058706720978241e-04 7.612775562167708662e-04
3.533000000000000224e-04 3.313503829113090826e-01 4.987577676308450197e-04 7.626578558207241024e-04
4.075999999999999871e-04 3.823564017794535141e-01 5.381334366106255759e-04 7.813048116943254948e-04
4.679999999999999915e-04 4.390986251953180042e-01 5.832692638200615834e-04 8.096035963157804938e-04
5.341000000000000261e-04 5.012024644415256081e-01 6.346556894078133086e-04 8.452514814113673558e-04
6.059000000000000366e-04 5.686690698184251325e-01 6.930641302632923034e-04 8.862253587289389486e-04
7.661000000000000275e-04 7.192254882508629654e-01 8.328184776562496576e-04 9.702780530519144065e-04
1.262000000000000101e-03 1.185459127778160093e+00 1.338484980802662205e-03 1.198863597978450275e-03
1.894999999999999983e-03 1.780909071169781921e+00 2.123481960401060308e-03 1.437771491635827115e-03
2.673000000000000029e-03 2.513147344746868850e+00 3.261860252001994032e-03 1.671524566936786766e-03
3.605999999999999830e-03 3.391736073717691369e+00 4.828136641022434151e-03 1.893900408978071038e-03
4.709999999999999777e-03 4.431905410739045870e+00 6.903512974832482635e-03 2.096551352830673849e-03
7.496000000000000059e-03 7.058993649504918366e+00 1.289742191321638018e-02 2.466596387205546859e-03
1.119999999999999989e-02 1.055540362104863661e+01 2.212077014004794340e-02 2.809304433764861584e-03
1.600000000000000033e-02 1.509117352747679952e+01 3.559566804390756900e-02 3.132325055719984222e-03
2.206999999999999934e-02 2.083310616724802244e+01 5.457322122755020599e-02 3.477840948757840792e-03
2.947999999999999926e-02 2.785007348564149154e+01 8.049103664263126956e-02 3.909302116317729670e-03
4.268000000000000266e-02 4.036707211535221518e+01 1.353887601042819133e-01 4.862066536253286525e-03
6.219999999999999835e-02 5.891246509830522626e+01 2.419691225623893105e-01 6.630786177272363080e-03
7.316999999999999893e-02 6.935151695866235855e+01 3.161896974764099033e-01 7.588671314871411888e-03
7.595999999999999974e-02 7.200836722020332559e+01 3.371250777904805096e-01 8.170805199905812125e-03
7.685877551020407761e-02 7.286441676931703171e+01 3.442008581622029717e-01 8.360427309110133459e-03
7.775755102040816935e-02 7.372054999670561415e+01 3.514368606996337019e-01 8.543482298201883138e-03
7.865632653061224722e-02 7.457676775570949701e+01 3.588276228440318016e-01 8.720254602201837207e-03
7.955510204081632508e-02 7.543307081911852663e+01 3.663679237219789608e-01 8.891028656130785593e-03
8.045387755102040295e-02 7.628945988463311778e+01 3.740527842054238161e-01 9.056088895009506076e-03
8.135265306122449469e-02 7.714593558008233742e+01 3.818774669808589484e-01 9.215719753858788582e-03
8.225142857142857256e-02 7.800249846841211365e+01 3.898374766266336500e-01 9.370205667699409158e-03
8.315020408163265042e-02 7.885914905245618911e+01 3.979285596974954653e-01 9.519831071552157728e-03
8.404897959183672829e-02 7.971588777950202598e+01 4.061467048155277260e-01 9.664880400437808605e-03
8.494775510204082003e-02 8.057271504566203646e+01 4.144881427667304608e-01 9.805638089377156918e-03
8.584653061224489790e-02 8.142963120006086797e+01 4.229493466025561199e-01 9.942388573390973511e-03
8.674530612244897576e-02 8.228663654884874745e+01 4.315270317457814420e-01 1.007541628750004657e-02
8.764408163265305363e-02 8.314373135904931189e+01 4.402181561001501930e-01 1.020500566672516603e-02
8.854285714285714537e-02 8.400091586225052254e+01 4.490199201632841253e-01 1.033144114608710966e-02
8.944163265306122323e-02 8.485819025814753047e+01 4.579297671424071292e-01 1.045500716060665698e-02
9.034040816326530110e-02 8.571555471794370362e+01 4.669453830724806798e-01 1.057598814530459272e-02
9.123918367346939284e-02 8.657300938761743225e+01 4.760646969363898084e-01 1.069466853520170332e-02
9.213795918367347071e-02 8.743055439106215943e+01 4.852858807868659086e-01 1.081133276531877178e-02
9.303673469387754857e-02 8.828818983310391388e+01 4.946073498698719262e-01 1.092626527067657935e-02
9.393551020408162644e-02 8.914591580240460189e+01 5.040277627492113499e-01 1.103975048629591074e-02
9.483428571428570431e-02 9.000373237425465334e+01 5.135460214321601047e-01 1.115207284719754374e-02
9.573306122448979605e-02 9.086163961326089122e+01 5.231612714959531507e-01 1.126351678840227175e-02
9.663183673469387391e-02 9.171963757593529465e+01 5.328729022149881756e-01 1.137436674493087080e-02
9.753061224489795178e-02 9.257772631318799483e+01 5.426805466886397422e-01 1.148490715180412215e-02
9.842938775510204352e-02 9.343590587273008907e+01 5.525840819696029582e-01 1.159542244404281920e-02
9.932816326530612139e-02 9.429417630138908635e+01 5.625836291927130972e-01 1.170619705666773279e-02
1.002269387755101993e-01 9.515253764734266895e+01 5.726795537042139728e-01 1.181751542469965284e-02
1.011257142857142910e-01 9.601098996227277382e+01 5.828724651914660715e-01 1.192966198315936754e-02
1.020244897959183689e-01 9.686953330344448432e+01 5.931632178131129862e-01 1.204292116706764948e-02
1.029232653061224467e-01 9.772816773571284443e+01 6.035529103297425646e-01 1.215757741144528337e-02
1.038220408163265246e-01 9.858689333346057992e+01 6.140428862350982842e-01 1.227391515131305913e-02
1.047208163265306025e-01 9.944571018247019367e+01 6.246347338879165711e-01 1.239221882169175629e-02
1.056195918367346942e-01 1.003046183817322827e+02 6.353302866444825447e-01 1.251277285760215782e-02
1.065183673469387721e-01 1.011636180451941129e+02 6.461316229920117671e-01 1.263586169406504672e-02
1.074171428571428499e-01 1.020227093034498722e+02 6.570410666829858970e-01 1.276176976610120598e-02
1.083159183673469417e-01 1.028818923053756862e+02 6.680611868705783607e-01 1.289078150873142377e-02
1.092146938775510195e-01 1.037411672197114001e+02 6.791947982453253596e-01 1.302318135697647268e-02
1.101134693877550974e-01 1.046005342365911588e+02 6.904449611732108583e-01 1.315925374585714958e-02
1.110122448979591891e-01 1.054599935690261674e+02 7.018149818353427438e-01 1.329928311039422356e-02
1.119110204081632531e-01 1.063195454543386518e+02 7.133084123694132250e-01 1.344355388560848977e-02
1.128097959183673449e-01 1.071791901555533713e+02 7.249290510131498610e-01 1.359235050652072424e-02
1.137085714285714227e-01 1.080389279627433723e+02 7.366809422499652760e-01 1.374595740815171344e-02
1.146073469387755006e-01 1.088987591943366908e+02 7.485683769570380397e-01 1.390465902552223514e-02
1.155061224489795924e-01 1.097586841983813315e+02 7.605958925560543094e-01 1.406873979365308620e-02
1.164048979591836702e-01 1.106187033537733129e+02 7.727682731668555904e-01 1.423848414756503228e-02
1.173036734693877481e-01 1.114788170714472386e+02 7.850905497642487463e-01 1.441417652227886849e-02
1.182024489795918398e-01 1.123390257955322937e+02 7.975680003382364935e-01 1.459610135281537435e-02
1.191012244897959177e-01 1.131993300044733957e+02 8.102061500579401665e-01 1.478454307419532938e-02
1.199999999999999956e-01 1.140597302121207264e+02 8.230107714394947482e-01 1.497978612143952525e-02
1.228645878375738409e-01 1.168026583154455977e+02 8.650154694558308544e-01 1.564774639089731509e-02
1.257291756751476863e-01 1.195465882464410896e+02 9.089586147745953859e-01 1.638148818382222441e-02
1.285937635127215317e-01 1.222915434564991273e+02 9.550269209623315492e-01 1.718417944483308438e-02
1.314583513502953493e-01 1.250375506116833435e+02 1.003416127657974943e+00 1.805899449739087337e-02
1.343229391878691947e-01 1.277846395797945860e+02 1.054331053229683235e+00 1.900911444109370380e-02
1.371875270254430401e-01 1.305328434197037950e+02 1.107985651604282307e+00 2.003772743853214633e-02
1.400521148630168855e-01 1.332821983728058228e+02 1.164603073172675085e+00 2.114802889257145352e-02
1.429167027005907309e-01 1.360327438564567899e+02 1.224415729677842624e+00 2.234322151430436637e-02
1.457812905381645763e-01 1.387845224592752800e+02 1.287665362993866580e+00 2.362651528138285523e-02
1.486458783757384217e-01 1.415375799382012190e+02 1.354603117704862081e+00 2.500112728598274936e-02
1.515104662133122670e-01 1.442919652172141127e+02 1.425489617392032171e+00 2.647028147126600714e-02
1.543750540508860847e-01 1.470477303876225506e+02 1.500595044535332212e+00 2.803720825487584362e-02
1.572396418884599301e-01 1.498049307098472411e+02 1.580199223933627772e+00 2.970514403772345213e-02
1.601042297260337754e-01 1.525636246166227750e+02 1.664591709543769893e+00 3.147733059609540002e-02
1.629688175636076208e-01 1.553238737175517485e+02 1.754071874634882233e+00 3.335701435492581524e-02
1.658334054011814662e-01 1.580857428049513373e+02 1.848949005149305158e+00 3.534744553993127841e-02
1.686979932387552839e-01 1.608492998609320921e+02 1.949542396156244584e+00 3.745187720619948257e-02
1.715625810763291570e-01 1.636146160656590212e+02 2.056181451278225492e+00 3.967356414075114829e-02
1.744271689139029746e-01 1.663817658067424929e+02 2.169205784963985195e+00 4.201576163655795088e-02
1.772917567514768200e-01 1.691508266897126873e+02 2.288965327474627998e+00 4.448172413549670440e-02
1.801563445890506654e-01 1.719218795495334291e+02 2.415820432442490340e+00 4.707470373774885752e-02
1.830209324266245108e-01 1.746950084631105824e+02 2.550141986854621567e+00 4.979794857521849250e-02
1.858855202641983562e-01 1.774703007627560964e+02 2.692311523304763199e+00 5.265470104663491635e-02
1.887501081017721738e-01 1.802478470505671169e+02 2.842721334349477935e+00 5.564819591213233940e-02
1.916146959393460469e-01 1.830277412136798887e+02 3.001774588795578680e+00 5.878165824525851541e-02
1.944792837769198646e-01 1.858100804403627535e+02 3.169885449737228633e+00 6.205830124055126268e-02
1.973438716144937100e-01 1.885949652369098146e+02 3.347479194152243043e+00 6.548132387504479457e-02
2.002084594520675553e-01 1.913824994452978672e+02 3.534992333857887026e+00 6.905390842231685922e-02
2.030730472896414007e-01 1.941727902615712367e+02 3.732872737617359160e+00 7.277921781797272449e-02
2.059376351272152461e-01 1.969659482549177767e+02 3.941579754178704764e+00 7.666039287577283701e-02
2.088022229647890637e-01 1.997620873873971732e+02 4.161584336018494312e+00 8.070054935395437612e-02
2.116668108023629369e-01 2.025613250342888989e+02 4.393369163553115797e+00 8.490277487166815462e-02
2.145313986399367545e-01 2.053637820050188907e+02 4.637428769570902887e+00 8.927012567585256020e-02
2.173959864775105999e-01 2.081695825646301330e+02 4.894269663628928235e+00 9.380562325929378553e-02
2.202605743150844453e-01 2.109788544557577836e+02 5.164410456148489814e+00 9.851225083107310876e-02
2.231251621526582907e-01 2.137917289210708702e+02 5.448381981934023344e+00 1.033929496410823518e-01
2.259897499902321361e-01 2.166083407261423588e+02 5.746727422830506526e+00 1.084506151607870228e-01
2.288543378278059537e-01 2.194288281827061269e+02 6.060002429225050058e+00 1.136880931229404951e-01
2.317189256653798268e-01 2.222533331722611933e+02 6.388775240088998331e+00 1.191081754234915857e-01
2.345835135029536445e-01 2.250820011699832150e+02 6.733626801247476479e+00 1.247135958894872027e-01
2.374481013405274898e-01 2.279149812688988845e+02 7.095150881554302735e+00 1.305070259173436997e-01
2.403126891781013352e-01 2.307524262042807948e+02 7.473954186640780151e+00 1.364910699864405053e-01
2.431772770156751806e-01 2.335944923782199965e+02 7.870656469898132279e+00 1.426682610535872364e-01
2.460418648532490260e-01 2.364413398843310290e+02 8.285890640344229396e+00 1.490410558345069414e-01
2.489064526908228714e-01 2.392931325325423018e+02 8.720302867016485493e+00 1.556118299790812398e-01
2.517710405283967168e-01 2.421500378739254700e+02 9.174552679524028420e+00 1.623828731476992804e-01
2.546356283659705344e-01 2.450122272255181315e+02 9.649313064383548522e+00 1.693563839966452378e-01
2.575002162035443520e-01 2.478798756950865538e+02 1.014527055675464418e+01 1.765344650810461158e-01
2.603648040411182252e-01 2.507531622057841787e+02 1.066312532718183093e+01 1.839191176844690856e-01
3.366838896729321684e-01 3.296268238619416024e+02 2.816160599999082592e+01 2.577429497465191233e-01
4.130029753047460561e-01 4.132313883047209515e+02 5.289330627703668597e+01 3.315667818085691332e-01
4.893220609365599438e-01 5.021089391711909116e+02 8.575807804940230028e+01 4.053906138706191431e-01
5.656411465683739426e-01 5.967801004713749080e+02 1.277668861791682389e+02 4.792144459326692640e-01
6.419602322001878303e-01 6.977684266485914577e+02 1.800479356923154342e+02 5.530382779947192740e-01
7.182793178320017180e-01 8.056018118891430504e+02 2.432941281721510620e+02 6.171311791016680370e-01
7.945984034638156057e-01 9.204823786018587271e+02 3.060985649720338984e+02 4.823946363284914440e-01
8.709174890956294934e-01 1.040760383078826408e+03 3.557872600800110376e+02 3.476580935553149621e-01
9.472365747274433811e-01 1.164715612429894918e+03 3.903996416533033198e+02 2.129215507821384801e-01
1.023555660359257269e+00 1.290779079063032896e+03 4.086924461166559013e+02 7.818500800896188707e-02
1.099874745991071379e+00 1.418238601898264051e+03 4.314012337437359861e+02 2.766788054852312717e-01
1.176193831622885266e+00 1.548089038122542661e+03 4.812235353356367114e+02 4.870661198877458409e-01
1.252512917254699154e+00 1.681899323022602630e+03 5.511001713781154194e+02 5.557641733258422700e-01
1.328832002886513042e+00 1.820131710119684840e+03 6.199504984591096672e+02 4.429928661375120424e-01
1.405151088518326929e+00 1.961901065366245348e+03 6.746353080465405583e+02 3.302215589491818704e-01
1.481470174150140817e+00 2.106213317152146374e+03 7.140758263081378345e+02 2.174502517608516428e-01
1.557789259781954705e+00 2.252130919529359744e+03 7.375385768526824677e+02 1.046789445725214707e-01
1.634108345413768593e+00 2.398821931313057576e+03 7.463224155534192050e+02 1.521809503490334330e-02
1.710427431045582480e+00 2.545763840743459696e+03 7.485701258252991011e+02 1.537511230427343265e-02
1.786746516677396368e+00 2.692806617555631874e+03 7.508424675390916718e+02 1.553212957364352199e-02
1.863065602309210478e+00 2.839947002975619398e+03 7.531394214657435668e+02 1.568914684301361134e-02
1.939384687941024366e+00 2.987182004715788480e+03 7.554609710483888421e+02 1.584616411238370243e-02
2.015703773572838475e+00 3.134508865578482528e+03 7.578071020687133341e+02 1.600318138175379004e-02
2.092022859204652363e+00 3.281925036809109315e+03 7.601778023652772163e+02 1.616019865112388113e-02
