# density  energy_density  pressure   sound_speed_squared  [All in nuclear units]
2.720000000000000022e-14 2.529924618736292620e-11 1.061056609100270887e-19 3.766610435412189122e-08
1.269999999999999890e-13 1.181251617980081254e-10 4.870113551826584858e-18 6.497781477172163475e-08
6.929999999999999754e-13 6.445728594625782745e-10 1.018299070687946017e-16 3.033770597342807186e-07
6.295000000000000137e-12 5.855111460395753757e-09 5.487150723824490656e-15 1.763710043904196507e-06
1.581000000000000150e-11 1.470523320212576141e-08 2.904239460150760759e-14 3.559434472327477622e-06
3.971999999999999958e-11 3.694456170323160790e-08 1.439340266754906811e-13 6.772854871245677111e-06
9.975999999999999982e-11 9.278976412613005154e-08 6.812143616221268841e-13 1.246890511177539320e-05
2.505999999999999928e-10 2.330928829758143313e-07 3.107749196951638608e-12 2.212095130576091967e-05
6.294000000000000186e-10 5.854398883216247602e-07 1.363250409771533549e-11 3.761981047239428883e-05
1.581000000000000021e-09 1.470619631082054101e-06 5.726014178088476303e-11 6.095350986710739404e-05
3.971999999999999932e-09 3.694861084648016046e-06 2.210019573374265380e-10 8.628023653304385055e-05
5.000000000000000105e-09 4.651201787816927976e-06 3.071485916280120014e-10 9.387863480799757518e-05
9.975999999999999465e-09 9.280587964640925786e-06 8.385361004129998845e-10 1.356922228656245837e-04
1.989999999999999952e-08 1.851419242998081003e-05 2.287763168863418088e-09 1.782101978513718314e-04
3.972999999999999908e-08 3.696699295748789187e-05 6.061583099087538954e-09 2.308134738384234820e-04
7.925999999999999637e-08 7.375765469301719828e-05 1.575347858094044765e-08 2.960532096713864875e-04
1.580999999999999930e-07 1.471491184379128891e-04 3.910429618672550719e-08 3.402859755131850544e-04
1.991000000000000027e-07 1.853209783927820692e-04 5.252045687899177454e-08 3.626488188833278743e-04
3.155999999999999938e-07 2.938002528823880299e-04 9.730770378831954314e-08 4.630767356912104081e-04
5.000999999999999849e-07 4.656344063839075714e-04 1.837494945860225819e-07 5.430301232045120323e-04
6.295999999999999732e-07 5.862651417037388971e-04 2.503103884558263872e-07 5.605192962670089638e-04
9.666999999999999941e-07 9.003386739730535665e-04 4.324450868778576936e-07 5.993081670211623108e-04
1.531999999999999901e-06 1.427170885631398036e-03 7.780217275717420968e-07 7.125938556504039095e-04
2.506999999999999883e-06 2.336134972129507662e-03 1.471005394641589826e-06 8.121876172121876309e-04
3.974000000000000407e-06 3.704315759716615697e-03 2.695705763844323844e-06 9.780674166779417152e-04
4.830000000000000343e-06 4.502887798316278223e-03 3.503988717694660908e-06 1.046253037768318664e-03
6.080999999999999885e-06 5.670217999231269741e-03 4.731126407333307547e-06 1.056224360839501646e-03
7.930000000000000308e-06 7.396012414119570652e-03 6.599662989063778187e-06 1.109203753630785610e-03
9.982000000000000313e-06 9.311815711689977113e-03 8.879881089227186733e-06 1.271216815433141075e-03
1.256999999999999993e-05 1.172874412604260098e-02 1.207676739913533738e-05 1.374195438212825332e-03
1.521999999999999997e-05 1.420427250933824909e-02 1.547541302213394990e-05 1.371610497379100249e-03
1.991000000000000080e-05 1.858690797761085312e-02 2.160710455847765458e-05 1.426578142835871997e-03
2.506999999999999883e-05 2.341050104039446925e-02 2.908031724375689851e-05 1.672007475975408053e-03
2.790999999999999875e-05 2.606604784714952258e-02 3.357009132255487721e-05 1.709425557744154774e-03
3.806999999999999973e-05 3.556967988784798945e-02 4.986781576435106434e-05 1.720407281314112165e-03
5.063000000000000145e-05 4.732434580343149871e-02 7.073400252905581275e-05 1.829889149838781265e-03
6.592000000000000583e-05 6.164112392498975052e-02 9.765037643900635188e-05 1.930242980462695823e-03
8.433000000000000066e-05 7.888776783401378612e-02 1.317235490470395893e-04 2.021055815200022837e-03
1.062000000000000064e-04 9.938561165478684845e-02 1.740088341640037047e-04 2.104789529260958983e-03
1.321000000000000126e-04 1.236720406455826121e-01 2.260189757651373944e-04 2.178291718403657477e-03
1.623999999999999901e-04 1.520974545104751274e-01 2.888169908545388338e-04 2.240170365918073281e-03
1.689999999999999879e-04 1.582907717069566844e-01 3.027354772999506964e-04 2.254509350360745651e-03
1.758999999999999930e-04 1.647661861691531171e-01 3.173785841705756782e-04 2.268169273277113179e-03
1.830000000000000029e-04 1.714298948183871907e-01 3.325196584577469103e-04 2.276170334580628063e-03
1.901999999999999882e-04 1.781880600978280049e-01 3.479577791899843742e-04 2.292561569242367037e-03
1.977000000000000079e-04 1.852284385240466902e-01 3.641242634600037713e-04 2.299943765467868384e-03
2.054000000000000053e-04 1.924572004474696396e-01 3.808304060475003897e-04 2.322187632288155723e-03
2.079000000000000119e-04 1.948043378760714872e-01 3.864137987380476553e-04 2.435429768083530178e-03
2.081999999999999921e-04 1.950859988578999005e-01 3.870314100985603909e-04 1.950065624557156818e-03
2.090999999999999868e-04 1.959309855029948977e-01 3.881261957135444685e-04 6.411875526909013856e-04
2.159999999999999919e-04 2.024093317906446865e-01 3.940874488768042125e-04 1.199166870571831411e-03
2.231000000000000019e-04 2.090756740932291913e-01 4.013938420547467825e-04 9.928616047829054436e-04
2.311000000000000066e-04 2.165873044433437034e-01 4.085241694843774404e-04 9.056166966301716637e-04
2.401000000000000085e-04 2.250381721984245909e-01 4.159700687886608468e-04 8.565463878902855599e-04
2.500000000000000052e-04 2.343344406330727658e-01 4.237602369176299592e-04 8.194318812157330018e-04
2.642999999999999733e-04 2.477629128650125634e-01 4.345596643180389446e-04 7.890063723638815647e-04
3.052999999999999941e-04 2.862671839140227270e-01 4.644058706720978241e-04 7.612775562167708662e-04
3.533000000000000224e-04 3.313503829113090826e-01 4.987577676308450197e-04 7.626578558207241024e-04
4.075999999999999871e-04 3.823564017794535141e-01 5.381334366106255759e-04 7.813048116943254948e-04
4.679999999999999915e-04 4.390986251953180042e-01 5.832692638200615834e-04 8.096035963157804938e-04
5.341000000000000261e-04 5.012024644415256081e-01 6.346556894078133086e-04 8.452514814113673558e-04
6.059000000000000366e-04 5.686690698184251325e-01 6.930641302632923034e-04 8.862253587289389486e-04
7.661000000000000275e-04 7.192254882508629654e-01 8.328184776562496576e-04 9.702780530519144065e-04
1.262000000000000101e-03 1.185459127778160093e+00 1.338484980802662205e-03 1.198863597978450275e-03
1.894999999999999983e-03 1.780909071169781921e+00 2.123481960401060308e-03 1.437771491635827115e-03
2.673000000000000029e-03 2.513147344746868850e+00 3.261860252001994032e-03 1.671524566936786766e-03
3.605999999999999830e-03 3.391736073717691369e+00 4.828136641022434151e-03 1.893900408978071038e-03
4.709999999999999777e-03 4.431905410739045870e+00 6.903512974832482635e-03 2.096551352830673849e-03
7.496000000000000059e-03 7.058993649504918366e+00 1.289742191321638018e-02 2.466596387205546859e-03
1.119999999999999989e-02 1.055540362104863661e+01 2.212077014004794340e-02 2.809304433764861584e-03
1.600000000000000033e-02 1.509117352747679952e+01 3.559566804390756900e-02 3.132325055719984222e-03
2.206999999999999934e-02 2.083310616724802244e+01 5.457322122755020599e-02 3.477840948757840792e-03
2.947999999999999926e-02 2.785007348564149154e+01 8.049103664263126956e-02 3.909302116317729670e-03
4.268000000000000266e-02 4.036707211535221518e+01 1.353887601042819133e-01 4.862066536253286525e-03
6.219999999999999835e-02 5.891246509830522626e+01 2.419691225623893105e-01 6.630786177272363080e-03
7.316999999999999893e-02 6.935151695866235855e+01 3.161896974764099033e-01 7.588671314871411888e-03
7.595999999999999974e-02 7.200836722020332559e+01 3.371250777904805096e-01 8.170805199905812125e-03
7.685877551020407761e-02 7.286441678580351322e+01 3.442036795314327713e-01 8.367018267575692878e-03
7.775755102040816935e-02 7.372055010631942196e+01 3.514500145912335394e-01 8.561026597053659343e-03
7.865632653061224722e-02 7.457676814227146167e+01 3.588623108151230423e-01 8.753004397505535425e-03
7.955510204081632508e-02 7.543307181282354179e+01 3.664389448766149360e-01 8.943125878097158907e-03
8.045387755102040295e-02 7.628946199886635782e+01 3.741784423221946598e-01 9.131565247994360632e-03
8.135265306122449469e-02 7.714593954596361414e+01 3.820794776199809561e-01 9.318496716362978383e-03
8.225142857142857256e-02 7.800250526716891386e+01 3.901408742120575091e-01 9.504094492368837799e-03
8.315020408163265042e-02 7.885915994571971055e+01 3.983616045702124131e-01 9.688532785177773193e-03
8.404897959183672829e-02 7.971590433761575412e+01 4.067407902548445531e-01 9.871985803955617145e-03
8.494775510204082003e-02 8.057273917408734576e+01 4.152777019768237321e-01 1.005462775786821090e-02
8.584653061224489790e-02 8.142966516396052157e+01 4.239717596621104256e-01 1.023663285608137317e-02
8.674530612244897576e-02 8.228668299592321489e+01 4.328225325189649642e-01 1.041817530776094347e-02
8.764408163265305363e-02 8.314379334069866445e+01 4.418297391075906577e-01 1.059942932207275958e-02
8.854285714285714537e-02 8.400099685312990516e+01 4.509932474120780244e-01 1.078056910818264887e-02
8.944163265306122323e-02 8.485829417418082699e+01 4.603130749145301626e-01 1.096176887525644045e-02
9.034040816326530110e-02 8.571568593285738302e+01 4.697893886712690148e-01 1.114320283245997210e-02
9.123918367346939284e-02 8.657317274805306795e+01 4.794225053910322054e-01 1.132504518895907641e-02
9.213795918367347071e-02 8.743075523032224794e+01 4.892128915150871782e-01 1.150747015391958422e-02
9.303673469387754857e-02 8.828843398358570482e+01 4.991611632992034031e-01 1.169065193650732984e-02
9.393551020408162644e-02 8.914620960677017081e+01 5.092680868974303054e-01 1.187476474588814411e-02
9.483428571428570431e-02 9.000408269538685602e+01 5.195345784476456119e-01 1.205998279122785961e-02
9.573306122448979605e-02 9.086205384305021937e+01 5.299617041588463584e-01 1.224648028169231760e-02
9.663183673469387391e-02 9.172012364294091924e+01 5.405506804001647403e-01 1.243443142644733504e-02
9.753061224489795178e-02 9.257829268921494759e+01 5.513028737916032540e-01 1.262401043465875665e-02
9.842938775510204352e-02 9.343656157836205978e+01 5.622198012964885194e-01 1.281539151549241154e-02
9.932816326530612139e-02 9.429493091051490694e+01 5.733031303156536085e-01 1.300874887811413229e-02
1.002269387755101993e-01 9.515340129071168462e+01 5.845546787833690860e-01 1.320425673168975148e-02
1.011257142857142910e-01 9.601197333011523938e+01 5.959764152650439684e-01 1.340208928538510688e-02
1.020244897959183689e-01 9.687064764718815013e+01 6.075704590567312380e-01 1.360242074836601894e-02
1.029232653061224467e-01 9.772942486882881497e+01 6.193390802864775502e-01 1.380542532979833065e-02
1.038220408163265246e-01 9.858830563146801751e+01 6.312847000175588752e-01 1.401127723884787457e-02
1.047208163265306025e-01 9.944729058212803352e+01 6.434098903536568104e-01 1.422015068468047462e-02
1.056195918367346942e-01 1.003063803794472761e+02 6.557173745460298520e-01 1.443221987646197899e-02
1.065183673469387721e-01 1.011655756946700535e+02 6.682100271027421323e-01 1.464765902335820463e-02
1.074171428571428499e-01 1.020248772126045083e+02 6.808908739000187893e-01 1.486664233453499281e-02
1.083159183673469417e-01 1.028842856325492363e+02 6.937630922957970236e-01 1.508934401915817437e-02
1.092146938775510195e-01 1.037438016691895086e+02 7.068300112455497830e-01 1.531593828639358015e-02
1.101134693877550974e-01 1.046034260534661655e+02 7.200951114204664494e-01 1.554659934540704447e-02
1.110122448979591891e-01 1.054631595334160750e+02 7.335620253280710212e-01 1.578150140536440510e-02
1.119110204081632531e-01 1.063230028749865141e+02 7.472345374353679404e-01 1.602081867543148075e-02
1.128097959183673449e-01 1.071829568628251081e+02 7.611165842946129301e-01 1.626472536477412134e-02
1.137085714285714227e-01 1.080430223010446440e+02 7.752122546717953311e-01 1.651339568255814905e-02
1.146073469387755006e-01 1.089032000139652183e+02 7.895257896779429574e-01 1.676700383794939644e-02
1.155061224489795924e-01 1.097634908468344292e+02 8.040615829033440631e-01 1.702572404011370305e-02
1.164048979591836702e-01 1.106238956665253426e+02 8.188241805547953334e-01 1.728973049821689797e-02
1.173036734693877481e-01 1.114844153622149321e+02 8.338182815959868099e-01 1.755919742142480686e-02
1.182024489795918398e-01 1.123450508460422128e+02 8.490487378911322214e-01 1.783429901890327962e-02
1.191012244897959177e-01 1.132058030537475872e+02 8.645205543519606239e-01 1.811520949981812803e-02
1.199999999999999956e-01 1.140666729452941865e+02 8.802388890881885919e-01 1.840210307333519507e-02
1.232949232750487900e-01 1.172236635009429619e+02 9.400614647315087558e-01 1.949613721263658561e-02
1.265898465500975845e-01 1.203822998000554350e+02 1.003425149640556846e+00 2.062451720396921498e-02
1.298847698251463512e-01 1.235426326683741109e+02 1.070444973209193185e+00 2.178835058071773578e-02
1.331796931001951456e-01 1.267047133222713313e+02 1.141240051123974419e+00 2.298888586831765446e-02
1.364746163752439401e-01 1.298685934466048764e+02 1.215934053786193125e+00 2.422751224814216967e-02
1.397695396502927345e-01 1.330343252763812245e+02 1.294655676178043002e+00 2.550575913960753671e-02
1.430644629253415290e-01 1.362019616818109569e+02 1.377539109109582105e+00 2.682529570936886820e-02
1.463593862003902957e-01 1.393715562563964738e+02 1.464724511814093688e+00 2.818793031432379956e-02
1.496543094754390901e-01 1.425431634077410195e+02 1.556358485884955067e+00 2.959560988323591338e-02
1.529492327504878846e-01 1.457168384508078134e+02 1.652594550567934695e+00 3.105041924009461357e-02
1.562441560255366790e-01 1.488926377033959056e+02 1.753593619439610674e+00 3.255458037081168654e-02
1.595390793005854735e-01 1.520706185836283169e+02 1.859524478515740542e+00 3.411045163348577075e-02
1.628340025756342402e-01 1.552508397092732650e+02 1.970564265843439911e+00 3.572052691122860890e-02
1.661289258506830624e-01 1.584333609987443197e+02 2.086898952638238658e+00 3.738743470542005287e-02
1.694238491257318291e-01 1.616182437736445365e+02 2.208723826031778081e+00 3.911393716622857397e-02
1.727187724007806235e-01 1.648055508627345489e+02 2.336243973498448145e+00 4.090292905629184378e-02
1.760136956758294180e-01 1.679953467072238595e+02 2.469674769029654549e+00 4.275743664258367660e-02
1.793086189508781847e-01 1.711876974672908602e+02 2.609242361123132348e+00 4.468061651069710205e-02
1.826035422259270069e-01 1.743826711297562042e+02 2.755184162651674651e+00 4.667575429503830614e-02
1.858984655009757736e-01 1.775803376168369141e+02 2.907749342671121173e+00 4.874626331774999793e-02
1.891933887760245681e-01 1.807807688959223356e+02 3.067199320221634107e+00 5.089568312856199844e-02
1.924883120510733625e-01 1.839840390903150649e+02 3.233808260169011461e+00 5.312767793719672116e-02
1.957832353261221292e-01 1.871902245908919156e+02 3.407863571124583491e+00 5.544603492943931539e-02
1.990781586011709514e-01 1.903994041686410128e+02 3.589666405472759614e+00 5.785466245750975345e-02
2.023730818762197181e-01 1.936116590880386639e+02 3.779532161524890466e+00 6.035758809495383320e-02
2.056680051512685126e-01 1.968270732212293979e+02 3.977790987806866241e+00 6.295895654589413193e-02
2.089629284263173070e-01 2.000457331629819180e+02 4.184788289475553036e+00 6.566302739815543799e-02
2.122578517013661015e-01 2.032677283463914932e+02 4.400885236846324489e+00 6.847417270950299784e-02
2.155527749764148959e-01 2.064931511593031814e+02 4.626459276000129073e+00 7.139687441600256479e-02
2.188476982514636626e-01 2.097220970614316400e+02 4.861904641424156459e+00 7.443572155133605650e-02
2.221426215265124571e-01 2.129546647021564070e+02 5.107632870625112176e+00 7.759540726578248448e-02
2.254375448015612515e-01 2.161909560389695741e+02 5.364073320638421905e+00 8.088072563350526267e-02
2.287324680766100460e-01 2.194310764565566103e+02 5.631673686340545437e+00 8.429656823677522670e-02
2.320273913516588404e-01 2.226751348864872853e+02 5.910900520454790197e+00 8.784792051580514460e-02
2.353223146267076071e-01 2.259232439274995272e+02 6.202239755123867049e+00 9.153985787298037080e-02
2.386172379017564016e-01 2.291755199663529368e+02 6.506197224904799015e+00 9.537754152044192191e-02
2.419121611768051960e-01 2.324320832992326302e+02 6.823299191023706634e+00 9.936621406021640956e-02
2.452070844518539905e-01 2.356930582536799363e+02 7.154092866709691023e+00 1.035111947863931042e-01
2.485020077269027849e-01 2.389585733110307331e+02 7.499146943408189436e+00 1.078178746992271980e-01
2.517969310019515516e-01 2.422287612293339691e+02 7.859052117655194181e+00 1.122917112214963792e-01
2.550918542770003183e-01 2.455037591667289973e+02 8.234421618374389240e+00 1.169382226079655890e-01
2.583867775520491405e-01 2.487837088052551167e+02 8.625891734339631967e+00 1.217629820394151435e-01
2.616817008270979628e-01 2.520687564750648733e+02 9.034122341525428368e+00 1.267716113933694544e-01
2.649766241021467295e-01 2.553590532790147165e+02 9.459797430048043410e+00 1.319697746844255004e-01
2.682715473771954962e-01 2.586547552175997566e+02 9.903625630379607969e+00 1.373631711679207945e-01
2.715664706522442629e-01 2.619560233142031507e+02 1.036634073849718263e+01 1.429575281016053634e-01
2.748613939272930851e-01 2.652630237406243623e+02 1.084870223960824198e+01 1.487585931609887169e-01
2.781563172023419073e-01 2.685759279428515924e+02 1.135149583007321361e+01 1.547721265051200390e-01
2.814512404773906740e-01 2.718949127670381927e+02 1.187553393712494021e+01 1.610038924907291613e-01
3.573399906717296126e-01 3.503093094110131460e+02 2.796048681779195277e+01 2.471049498149315293e-01
4.332287408660686068e-01 4.329196975353579546e+02 5.203887759717464689e+01 3.332060071391339529e-01
5.091174910604076009e-01 5.204764371466887951e+02 8.511715108662434659e+01 4.193070644633363764e-01
5.850062412547465396e-01 6.136661279873211470e+02 1.283674441589057551e+02 5.054081217875387999e-01
6.608949914490854782e-01 7.131587347742973861e+02 1.831310489065090223e+02 5.915091791117410569e-01
7.367837416434244169e-01 8.196335223837411377e+02 2.509290185386968801e+02 6.776102364359435359e-01
8.126724918377634665e-01 9.337954938946498942e+02 3.334772080673777737e+02 7.637112937601460150e-01
8.885612420321024052e-01 1.056338233714683611e+03 4.272103144797870300e+02 7.662600644069683664e-01
9.644499922264413438e-01 1.187154711175098328e+03 5.257866977332849956e+02 7.424011388354072594e-01
1.040338742420780171e+00 1.325841394522405608e+03 6.269977615910800068e+02 7.185422132638461523e-01
1.116227492615119221e+00 1.471991491053228401e+03 7.301802321227459061e+02 6.946832876922850453e-01
1.192116242809458271e+00 1.625209710464331692e+03 8.347077954422287576e+02 6.708243621207238272e-01
1.268004993003797320e+00 1.785112389594165734e+03 9.399900882719414312e+02 6.469654365491627201e-01
1.343893743198136370e+00 1.951327524175258759e+03 1.045471612740615683e+03 6.231065109776016131e-01
1.419782493392474976e+00 2.123494730485056607e+03 1.150630603293814829e+03 5.992475854060406171e-01
1.495671243586814025e+00 2.301265153693480443e+03 1.254977865994346303e+03 5.753886598344793990e-01
1.571559993781153075e+00 2.484301335462790576e+03 1.358055605168839065e+03 5.515297342629182920e-01
1.647448743975492125e+00 2.672277050333499119e+03 1.459436248549896391e+03 5.276708086913570739e-01
1.723337494169831174e+00 2.864877118235065609e+03 1.558721279287285824e+03 5.038118831197959668e-01
1.799226244364169780e+00 3.061866238539968435e+03 1.662088678029533185e+03 5.450132181785783958e-01
1.875114994558508830e+00 3.263522444975289545e+03 1.788175201782084287e+03 7.022719213177883724e-01
1.951003744752847879e+00 3.470564289521922547e+03 1.900120139835087912e+03 3.844352866214235109e-01
2.026892494947186929e+00 3.681063979296652178e+03 1.984751573513893391e+03 4.193228522021952287e-01
2.102781245141525979e+00 3.894892541236910802e+03 2.078184059869317934e+03 4.542104177829668910e-01
