# density  energy_density  pressure   sound_speed_squared  [All in nuclear units]
2.720000000000000022e-14 2.529924618736292620e-11 1.061056609100270887e-19 3.766610435412189122e-08
1.269999999999999890e-13 1.181251617980081254e-10 4.870113551826584858e-18 6.497781477172163475e-08
6.929999999999999754e-13 6.445728594625782745e-10 1.018299070687946017e-16 3.033770597342807186e-07
6.295000000000000137e-12 5.855111460395753757e-09 5.487150723824490656e-15 1.763710043904196507e-06
1.581000000000000150e-11 1.470523320212576141e-08 2.904239460150760759e-14 3.559434472327477622e-06
3.971999999999999958e-11 3.694456170323160790e-08 1.439340266754906811e-13 6.772854871245677111e-06
9.975999999999999982e-11 9.278976412613005154e-08 6.812143616221268841e-13 1.246890511177539320e-05
2.505999999999999928e-10 2.330928829758143313e-07 3.107749196951638608e-12 2.212095130576091967e-05
6.294000000000000186e-10 5.854398883216247602e-07 1.363250409771533549e-11 3.761981047239428883e-05
1.581000000000000021e-09 1.470619631082054101e-06 5.726014178088476303e-11 6.095350986710739404e-05
3.971999999999999932e-09 3.694861084648016046e-06 2.210019573374265380e-10 8.628023653304385055e-05
5.000000000000000105e-09 4.651201787816927976e-06 3.071485916280120014e-10 9.387863480799757518e-05
9.975999999999999465e-09 9.280587964640925786e-06 8.385361004129998845e-10 1.356922228656245837e-04
1.989999999999999952e-08 1.851419242998081003e-05 2.287763168863418088e-09 1.782101978513718314e-04
3.972999999999999908e-08 3.696699295748789187e-05 6.061583099087538954e-09 2.308134738384234820e-04
7.925999999999999637e-08 7.375765469301719828e-05 1.575347858094044765e-08 2.960532096713864875e-04
1.580999999999999930e-07 1.471491184379128891e-04 3.910429618672550719e-08 3.402859755131850544e-04
1.991000000000000027e-07 1.853209783927820692e-04 5.252045687899177454e-08 3.626488188833278743e-04
3.155999999999999938e-07 2.938002528823880299e-04 9.730770378831954314e-08 4.630767356912104081e-04
5.000999999999999849e-07 4.656344063839075714e-04 1.837494945860225819e-07 5.430301232045120323e-04
6.295999999999999732e-07 5.862651417037388971e-04 2.503103884558263872e-07 5.605192962670089638e-04
9.666999999999999941e-07 9.003386739730535665e-04 4.324450868778576936e-07 5.993081670211623108e-04
1.531999999999999901e-06 1.427170885631398036e-03 7.780217275717420968e-07 7.125938556504039095e-04
2.506999999999999883e-06 2.336134972129507662e-03 1.471005394641589826e-06 8.121876172121876309e-04
3.974000000000000407e-06 3.704315759716615697e-03 2.695705763844323844e-06 9.780674166779417152e-04
4.830000000000000343e-06 4.502887798316278223e-03 3.503988717694660908e-06 1.046253037768318664e-03
6.080999999999999885e-06 5.670217999231269741e-03 4.731126407333307547e-06 1.056224360839501646e-03
7.930000000000000308e-06 7.396012414119570652e-03 6.599662989063778187e-06 1.109203753630785610e-03
9.982000000000000313e-06 9.311815711689977113e-03 8.879881089227186733e-06 1.271216815433141075e-03
1.256999999999999993e-05 1.172874412604260098e-02 1.207676739913533738e-05 1.374195438212825332e-03
1.521999999999999997e-05 1.420427250933824909e-02 1.547541302213394990e-05 1.371610497379100249e-03
1.991000000000000080e-05 1.858690797761085312e-02 2.160710455847765458e-05 1.426578142835871997e-03
2.506999999999999883e-05 2.341050104039446925e-02 2.908031724375689851e-05 1.672007475975408053e-03
2.790999999999999875e-05 2.606604784714952258e-02 3.357009132255487721e-05 1.709425557744154774e-03
3.806999999999999973e-05 3.556967988784798945e-02 4.986781576435106434e-05 1.720407281314112165e-03
5.063000000000000145e-05 4.732434580343149871e-02 7.073400252905581275e-05 1.829889149838781265e-03
6.592000000000000583e-05 6.164112392498975052e-02 9.765037643900635188e-05 1.930242980462695823e-03
8.433000000000000066e-05 7.888776783401378612e-02 1.317235490470395893e-04 2.021055815200022837e-03
1.062000000000000064e-04 9.938561165478684845e-02 1.740088341640037047e-04 2.104789529260958983e-03
1.321000000000000126e-04 1.236720406455826121e-01 2.260189757651373944e-04 2.178291718403657477e-03
1.623999999999999901e-04 1.520974545104751274e-01 2.888169908545388338e-04 2.240170365918073281e-03
1.689999999999999879e-04 1.582907717069566844e-01 3.027354772999506964e-04 2.254509350360745651e-03
1.758999999999999930e-04 1.647661861691531171e-01 3.173785841705756782e-04 2.268169273277113179e-03
1.830000000000000029e-04 1.714298948183871907e-01 3.325196584577469103e-04 2.276170334580628063e-03
1.901999999999999882e-04 1.781880600978280049e-01 3.479577791899843742e-04 2.292561569242367037e-03
1.977000000000000079e-04 1.852284385240466902e-01 3.641242634600037713e-04 2.299943765467868384e-03
2.054000000000000053e-04 1.924572004474696396e-01 3.808304060475003897e-04 2.322187632288155723e-03
2.079000000000000119e-04 1.948043378760714872e-01 3.864137987380476553e-04 2.435429768083530178e-03
2.081999999999999921e-04 1.950859988578999005e-01 3.870314100985603909e-04 1.950065624557156818e-03
2.090999999999999868e-04 1.959309855029948977e-01 3.881261957135444685e-04 6.411875526909013856e-04
2.159999999999999919e-04 2.024093317906446865e-01 3.940874488768042125e-04 1.199166870571831411e-03
2.231000000000000019e-04 2.090756740932291913e-01 4.013938420547467825e-04 9.928616047829054436e-04
2.311000000000000066e-04 2.165873044433437034e-01 4.085241694843774404e-04 9.056166966301716637e-04
2.401000000000000085e-04 2.250381721984245909e-01 4.159700687886608468e-04 8.565463878902855599e-04
2.500000000000000052e-04 2.343344406330727658e-01 4.237602369176299592e-04 8.194318812157330018e-04
2.642999999999999733e-04 2.477629128650125634e-01 4.345596643180389446e-04 7.890063723638815647e-04
3.052999999999999941e-04 2.862671839140227270e-01 4.644058706720978241e-04 7.612775562167708662e-04
3.533000000000000224e-04 3.313503829113090826e-01 4.987577676308450197e-04 7.626578558207241024e-04
4.075999999999999871e-04 3.823564017794535141e-01 5.381334366106255759e-04 7.813048116943254948e-04
4.679999999999999915e-04 4.390986251953180042e-01 5.832692638200615834e-04 8.096035963157804938e-04
5.341000000000000261e-04 5.012024644415256081e-01 6.346556894078133086e-04 8.452514814113673558e-04
6.059000000000000366e-04 5.686690698184251325e-01 6.930641302632923034e-04 8.862253587289389486e-04
7.661000000000000275e-04 7.192254882508629654e-01 8.328184776562496576e-04 9.702780530519144065e-04
1.262000000000000101e-03 1.185459127778160093e+00 1.338484980802662205e-03 1.198863597978450275e-03
1.894999999999999983e-03 1.780909071169781921e+00 2.123481960401060308e-03 1.437771491635827115e-03
2.673000000000000029e-03 2.513147344746868850e+00 3.261860252001994032e-03 1.671524566936786766e-03
3.605999999999999830e-03 3.391736073717691369e+00 4.828136641022434151e-03 1.893900408978071038e-03
4.709999999999999777e-03 4.431905410739045870e+00 6.903512974832482635e-03 2.096551352830673849e-03
7.496000000000000059e-03 7.058993649504918366e+00 1.289742191321638018e-02 2.466596387205546859e-03
1.119999999999999989e-02 1.055540362104863661e+01 2.212077014004794340e-02 2.809304433764861584e-03
1.600000000000000033e-02 1.509117352747679952e+01 3.559566804390756900e-02 3.132325055719984222e-03
2.206999999999999934e-02 2.083310616724802244e+01 5.457322122755020599e-02 3.477840948757840792e-03
2.947999999999999926e-02 2.785007348564149154e+01 8.049103664263126956e-02 3.909302116317729670e-03
4.268000000000000266e-02 4.036707211535221518e+01 1.353887601042819133e-01 4.862066536253286525e-03
6.219999999999999835e-02 5.891246509830522626e+01 2.419691225623893105e-01 6.630786177272363080e-03
7.316999999999999893e-02 6.935151695866235855e+01 3.161896974764099033e-01 7.588671314871411888e-03
7.595999999999999974e-02 7.200836722020332559e+01 3.371250777904805096e-01 8.170805199905812125e-03
7.685877551020407761e-02 7.286441680339216020e+01 3.442066895331652443e-01 8.374049887046581750e-03
7.775755102040816935e-02 7.372055022319267437e+01 3.514640361085707432e-01 8.579716256056387283e-03
7.865632653061224722e-02 7.457676855412252337e+01 3.588992455242953628e-01 8.787829785328847565e-03
7.955510204081632508e-02 7.543307287059067789e+01 3.665144688913093418e-01 8.998415953257598784e-03
8.045387755102040295e-02 7.628946424716203012e+01 3.743118804508415165e-01 9.211500238236268456e-03
8.135265306122449469e-02 7.714594375881081589e+01 3.822936776017139549e-01 9.427108118658485830e-03
8.225142857142857256e-02 7.800251248116292402e+01 3.904620809281245108e-01 9.645265072917876686e-03
8.315020408163265042e-02 7.885917149072832899e+01 3.988193342278806286e-01 9.865996579408066805e-03
8.404897959183672829e-02 7.971592186512320666e+01 4.073677045410830644e-01 1.008932811652268717e-02
8.494775510204082003e-02 8.057276468328340968e+01 4.161094821792638010e-01 1.031528516265537224e-02
8.584653061224489790e-02 8.142970102566876278e+01 4.250469807549776546e-01 1.054389319619973737e-02
8.674530612244897576e-02 8.228673197445952781e+01 4.341825372118524040e-01 1.077517769554942051e-02
8.764408163265305363e-02 8.314385861374459807e+01 4.435185118550964423e-01 1.100916413909804742e-02
8.854285714285714537e-02 8.400108202970267257e+01 4.530572883824685038e-01 1.124587800523924909e-02
8.944163265306122323e-02 8.485840331077626786e+01 4.628012739157100208e-01 1.148534477236664957e-02
9.034040816326530110e-02 8.571582354783896562e+01 4.727528990324451619e-01 1.172758991887387636e-02
9.123918367346939284e-02 8.657334383435625114e+01 4.829146177985480515e-01 1.197263892315456220e-02
9.213795918367347071e-02 8.743096526654063894e+01 4.932889078009812800e-01 1.222051726360233286e-02
9.303673469387754857e-02 8.828868894350098628e+01 5.038782701811101994e-01 1.247125041861081932e-02
9.393551020408162644e-02 8.914651596738588069e+01 5.146852296684919503e-01 1.272486386657364389e-02
9.483428571428570431e-02 9.000444744352262205e+01 5.257123346151461041e-01 1.298138308588443583e-02
9.573306122448979605e-02 9.086248448055094684e+01 5.369621570303074742e-01 1.324083355493683480e-02
9.663183673469387391e-02 9.172062819055145155e+01 5.484372926156645400e-01 1.350324075212445615e-02
9.753061224489795178e-02 9.257887968917076194e+01 5.601403608010886437e-01 1.376863015584093262e-02
9.842938775510204352e-02 9.343724009574151523e+01 5.720740047808542394e-01 1.403702724447989346e-02
9.932816326530612139e-02 9.429571053339829234e+01 5.842408915503548572e-01 1.430845749643496444e-02
1.002269387755101993e-01 9.515429212919056567e+01 5.966437119433198877e-01 1.458294639009977654e-02
1.011257142857142910e-01 9.601298601419074430e+01 6.092851806695325223e-01 1.486051940386796076e-02
1.020244897959183689e-01 9.687179332359949058e+01 6.221680363530535107e-01 1.514120201613313940e-02
1.029232653061224467e-01 9.773071519684762620e+01 6.352950415709565091e-01 1.542501970528893998e-02
1.038220408163265246e-01 9.858975277769444290e+01 6.486689828925745749e-01 1.571199794972899522e-02
1.047208163265306025e-01 9.944890721432309988e+01 6.622926709192651362e-01 1.600216222784693262e-02
1.056195918367346942e-01 1.003081796594334776e+02 6.761689403246948782e-01 1.629553801803637972e-02
1.065183673469387721e-01 1.011675712703315924e+02 6.903006498956485437e-01 1.659215079869096748e-02
1.074171428571428499e-01 1.020270832090168369e+02 7.046906825733677548e-01 1.689202604820431650e-02
1.083159183673469417e-01 1.028867166422661654e+02 7.193419454954202985e-01 1.719518924497006468e-02
1.092146938775510195e-01 1.037464727417164596e+02 7.342573700381049839e-01 1.750166586738183261e-02
1.101134693877550974e-01 1.046063526839440101e+02 7.494399118593985110e-01 1.781148139383325474e-02
1.110122448979591891e-01 1.054663576505419087e+02 7.648925509424442382e-01 1.812466130271796205e-02
1.119110204081632531e-01 1.063264888281954654e+02 7.806182916395885130e-01 1.844123107242956472e-02
1.128097959183673449e-01 1.071867474087552523e+02 7.966201627169725574e-01 1.876121618136171107e-02
1.137085714285714227e-01 1.080471345893085697e+02 8.129012173996739143e-01 1.908464210790802515e-02
1.146073469387755006e-01 1.089076515722482554e+02 8.294645334174147733e-01 1.941153433046212406e-02
1.155061224489795924e-01 1.097682995653410103e+02 8.463132130508301820e-01 1.974191832741765268e-02
1.164048979591836702e-01 1.106290797817923988e+02 8.634503831783054695e-01 2.007581957716823157e-02
1.173036734693877481e-01 1.114899934403115651e+02 8.808791953233882088e-01 2.041326355810748130e-02
1.182024489795918398e-01 1.123510417651733064e+02 8.986028257027752764e-01 2.075427574862903982e-02
1.191012244897959177e-01 1.132122259862793783e+02 9.166244752748807789e-01 2.109888162712653115e-02
1.199999999999999956e-01 1.140735473392177539e+02 9.349473697889918444e-01 2.144710667199358975e-02
1.223796790533406148e-01 1.163547338105451985e+02 9.849441638422860024e-01 2.238674399762483058e-02
1.247593581066812479e-01 1.186369137278034316e+02 1.037136703539860871e+00 2.335226895557343529e-02
1.271390371600218672e-01 1.209201106127126906e+02 1.091586927471389412e+00 2.434401316495212603e-02
1.295187162133625003e-01 1.232043482743894600e+02 1.148357698132612015e+00 2.536231761946886043e-02
1.318983952667031057e-01 1.254896508107246262e+02 1.207512828737863142e+00 2.640753186332195704e-02
1.342780743200437388e-01 1.277760426101299061e+02 1.269117108361939916e+00 2.748001315890410273e-02
1.366577533733843719e-01 1.300635483535927222e+02 1.333236325395480648e+00 2.858012564804799163e-02
1.390374324267250050e-01 1.323521930169801522e+02 1.399937289301392163e+00 2.970823950841570624e-02
1.414171114800656104e-01 1.346420018735441033e+02 1.469287850662893025e+00 3.086473010651807208e-02
1.437967905334062435e-01 1.369330004965808314e+02 1.541356919516551738e+00 3.204997714874555093e-02
1.461764695867468489e-01 1.392252147622031657e+02 1.616214481966236072e+00 3.326436383169899952e-02
1.485561486400874820e-01 1.415186708521896151e+02 1.693931615076273323e+00 3.450827599302617316e-02
1.509358276934281151e-01 1.438133952568745713e+02 1.774580500044240727e+00 3.578210126389790718e-02
1.533155067467687482e-01 1.461094147780521837e+02 1.858234433655854279e+00 3.708622822419338494e-02
1.556951858001093536e-01 1.484067565318624133e+02 1.944967838026245177e+00 3.842104556140876759e-02
1.580748648534499867e-01 1.507054479516390870e+02 2.034856268633670862e+00 3.978694123425711993e-02
1.604545439067906198e-01 1.530055167906922975e+02 2.127976420653310718e+00 4.118430164188773696e-02
1.628342229601312252e-01 1.553069911250086932e+02 2.224406133600370872e+00 4.261351079962104327e-02
1.652139020134718583e-01 1.576098993558491657e+02 2.324224394293163076e+00 4.407494952207079153e-02
1.675935810668124915e-01 1.599142702122276205e+02 2.427511338148235165e+00 4.556899461450645422e-02
1.699732601201531246e-01 1.622201327532552284e+02 2.534348248821038929e+00 4.709601807329794748e-02
1.723529391734937299e-01 1.645275163703383328e+02 2.644817556206935372e+00 4.865638629627884459e-02
1.747326182268343631e-01 1.668364507892143536e+02 2.759002832818714612e+00 5.025045930386642934e-02
1.771122972801749684e-01 1.691469660718182411e+02 2.876988788558128451e+00 5.187858997178296933e-02
1.794919763335156015e-01 1.714590926179667747e+02 2.998861263900365337e+00 5.354112327623697376e-02
1.818716553868562347e-01 1.737728611668535166e+02 3.124707221511745292e+00 5.523839555244154653e-02
1.842513344401968678e-01 1.760883027983448130e+02 3.254614736322459123e+00 5.697073376737311207e-02
1.866310134935374732e-01 1.784054489340727230e+02 3.388672984077660377e+00 5.873845480770392702e-02
1.890106925468781063e-01 1.807243313383143288e+02 3.526972228391893616e+00 6.054186478387984377e-02
1.913903716002187116e-01 1.830449821186568045e+02 3.669603806333532781e+00 6.238125835135718833e-02
1.937700506535593448e-01 1.853674337264402538e+02 3.816660112567823226e+00 6.425691805006167323e-02
1.961497297068999779e-01 1.876917189569753077e+02 3.968234582089024798e+00 6.616911366318842247e-02
1.985294087602406110e-01 1.900178709495326075e+02 4.124421671574394210e+00 6.811810159652254004e-02
2.009090878135812441e-01 1.923459231871020449e+02 4.285316839394990751e+00 7.010412427952759928e-02
2.032887668669218495e-01 1.946759094959174377e+02 4.451016524320840162e+00 7.212740958952464088e-02
2.056684459202624826e-01 1.970078640447486009e+02 4.621618122960720498e+00 7.418817030036395366e-02
2.080481249736030880e-01 1.993418213439567523e+02 4.797219965979741652e+00 7.628660355708005714e-02
2.104278040269437211e-01 2.016778162443155225e+02 4.977921293141193360e+00 7.842289037811583929e-02
2.128074830802843542e-01 2.040158839355956104e+02 5.163822227222623518e+00 8.059719518690063034e-02
2.151871621336249873e-01 2.063560599449163533e+02 5.355023746859437495e+00 8.280966537399427063e-02
2.175668411869655927e-01 2.086983801348638394e+02 5.551627658374346019e+00 8.506043089316164818e-02
2.199465202403062258e-01 2.110428807013777828e+02 5.753736566654966467e+00 8.734960389149844240e-02
2.223261992936468312e-01 2.133895981714106256e+02 5.961453845146067465e+00 8.967727837720738948e-02
2.247058783469874643e-01 2.157385694003608592e+02 6.174883605029307887e+00 9.204352992677310163e-02
2.270855574003280974e-01 2.180898315692850247e+02 6.394130663668288861e+00 9.444841543409417117e-02
2.294652364536687306e-01 2.204434221818933679e+02 6.619300512403128778e+00 9.689197290419693243e-02
2.318449155070093637e-01 2.227993790613313365e+02 6.850499283785286941e+00 9.937422129432424422e-02
2.342245945603499691e-01 2.251577403467566683e+02 7.087833718350573520e+00 1.018951604053723176e-01
2.366042736136906022e-01 2.275185444897154241e+02 7.331411131035986628e+00 1.044547708268350333e-01
3.134082680297377577e-01 3.069138491982390633e+02 3.680297000497577642e+01 6.052379914859262744e-01
3.902122624457848854e-01 3.960136799955940887e+02 7.235931456327031697e+01 2.183865058593403297e-01
4.670162568618320131e-01 4.901645662455776460e+02 9.382441025986481975e+01 2.373733235752229775e-01
5.438202512778791409e-01 5.880711453783070510e+02 1.180052436723577074e+02 2.563601412911056254e-01
6.206242456939262686e-01 6.895924333465329710e+02 1.450067641560018217e+02 2.753469590069883011e-01
6.974282401099733963e-01 7.946361123912436142e+02 1.749398505303234401e+02 2.943337767228709767e-01
7.742322345260205241e-01 9.031428900912183053e+02 2.079202049293048447e+02 3.133205944387535968e-01
8.510362289420676518e-01 1.015077047242999811e+03 2.440677873530038369e+02 3.323074121546362725e-01
9.278402233581147796e-01 1.130420388198951059e+03 2.835065272986900595e+02 3.512942298705189481e-01
1.004644217774161907e+00 1.249168190663081987e+03 3.263641876585096497e+02 3.702810475864015682e-01
1.081448212190208924e+00 1.371326394220467364e+03 3.727723171091819836e+02 3.892678653022841884e-01
1.158252206606256163e+00 1.496909590043970184e+03 4.228662564091684999e+02 4.082546830181669195e-01
1.235056201022303179e+00 1.625939547652874353e+03 4.767851789348447937e+02 4.272415007340495396e-01
1.311860195438350418e+00 1.758444112732706344e+03 5.346721538304964270e+02 4.462283184499322153e-01
1.388664189854397435e+00 1.894456368073368594e+03 5.966742246815987301e+02 4.652151361658148909e-01
1.465468184270444674e+00 2.034013985339548981e+03 6.629424992748853356e+02 4.842019538816975666e-01
1.542272178686491912e+00 2.177158718014958140e+03 7.336322476123566503e+02 5.031887715975802422e-01
1.619076173102538929e+00 2.323936000634212178e+03 8.089030063423049342e+02 5.221755893134628623e-01
1.695880167518585946e+00 2.474394629304061709e+03 8.889186884038180096e+02 5.411624070293454825e-01
1.772684161934633185e+00 2.628579992893461167e+03 9.731882467370810446e+02 5.518010991410353672e-01
1.849488156350680423e+00 2.786483371083978454e+03 1.059801007530960305e+03 5.454119960135448419e-01
1.926292150766727440e+00 2.948004356550893135e+03 1.147367102165055485e+03 5.390228928860543167e-01
2.003096145182774457e+00 3.113034593511699313e+03 1.235782198066325464e+03 5.326337897585637915e-01
2.079900139598821696e+00 3.281470122840719341e+03 1.324946372280405740e+03 5.262446866310732663e-01
