# density  energy_density  pressure   sound_speed_squared  [All in nuclear units]
2.720000000000000022e-14 2.529924618736292620e-11 1.061056609100270887e-19 3.766610435412189122e-08
1.269999999999999890e-13 1.181251617980081254e-10 4.870113551826584858e-18 6.497781477172163475e-08
6.929999999999999754e-13 6.445728594625782745e-10 1.018299070687946017e-16 3.033770597342807186e-07
6.295000000000000137e-12 5.855111460395753757e-09 5.487150723824490656e-15 1.763710043904196507e-06
1.581000000000000150e-11 1.470523320212576141e-08 2.904239460150760759e-14 3.559434472327477622e-06
3.971999999999999958e-11 3.694456170323160790e-08 1.439340266754906811e-13 6.772854871245677111e-06
9.975999999999999982e-11 9.278976412613005154e-08 6.812143616221268841e-13 1.246890511177539320e-05
2.505999999999999928e-10 2.330928829758143313e-07 3.107749196951638608e-12 2.212095130576091967e-05
6.294000000000000186e-10 5.854398883216247602e-07 1.363250409771533549e-11 3.761981047239428883e-05
1.581000000000000021e-09 1.470619631082054101e-06 5.726014178088476303e-11 6.095350986710739404e-05
3.971999999999999932e-09 3.694861084648016046e-06 2.210019573374265380e-10 8.628023653304385055e-05
5.000000000000000105e-09 4.651201787816927976e-06 3.071485916280120014e-10 9.387863480799757518e-05
9.975999999999999465e-09 9.280587964640925786e-06 8.385361004129998845e-10 1.356922228656245837e-04
1.989999999999999952e-08 1.851419242998081003e-05 2.287763168863418088e-09 1.782101978513718314e-04
3.972999999999999908e-08 3.696699295748789187e-05 6.061583099087538954e-09 2.308134738384234820e-04
7.925999999999999637e-08 7.375765469301719828e-05 1.575347858094044765e-08 2.960532096713864875e-04
1.580999999999999930e-07 1.471491184379128891e-04 3.910429618672550719e-08 3.402859755131850544e-04
1.991000000000000027e-07 1.853209783927820692e-04 5.252045687899177454e-08 3.626488188833278743e-04
3.155999999999999938e-07 2.938002528823880299e-04 9.730770378831954314e-08 4.630767356912104081e-04
5.000999999999999849e-07 4.656344063839075714e-04 1.837494945860225819e-07 5.430301232045120323e-04
6.295999999999999732e-07 5.862651417037388971e-04 2.503103884558263872e-07 5.605192962670089638e-04
9.666999999999999941e-07 9.003386739730535665e-04 4.324450868778576936e-07 5.993081670211623108e-04
1.531999999999999901e-06 1.427170885631398036e-03 7.780217275717420968e-07 7.125938556504039095e-04
2.506999999999999883e-06 2.336134972129507662e-03 1.471005394641589826e-06 8.121876172121876309e-04
3.974000000000000407e-06 3.704315759716615697e-03 2.695705763844323844e-06 9.780674166779417152e-04
4.830000000000000343e-06 4.502887798316278223e-03 3.503988717694660908e-06 1.046253037768318664e-03
6.080999999999999885e-06 5.670217999231269741e-03 4.731126407333307547e-06 1.056224360839501646e-03
7.930000000000000308e-06 7.396012414119570652e-03 6.599662989063778187e-06 1.109203753630785610e-03
9.982000000000000313e-06 9.311815711689977113e-03 8.879881089227186733e-06 1.271216815433141075e-03
1.256999999999999993e-05 1.172874412604260098e-02 1.207676739913533738e-05 1.374195438212825332e-03
1.521999999999999997e-05 1.420427250933824909e-02 1.547541302213394990e-05 1.371610497379100249e-03
1.991000000000000080e-05 1.858690797761085312e-02 2.160710455847765458e-05 1.426578142835871997e-03
2.506999999999999883e-05 2.341050104039446925e-02 2.908031724375689851e-05 1.672007475975408053e-03
2.790999999999999875e-05 2.606604784714952258e-02 3.357009132255487721e-05 1.709425557744154774e-03
3.806999999999999973e-05 3.556967988784798945e-02 4.986781576435106434e-05 1.720407281314112165e-03
5.063000000000000145e-05 4.732434580343149871e-02 7.073400252905581275e-05 1.829889149838781265e-03
6.592000000000000583e-05 6.164112392498975052e-02 9.765037643900635188e-05 1.930242980462695823e-03
8.433000000000000066e-05 7.888776783401378612e-02 1.317235490470395893e-04 2.021055815200022837e-03
1.062000000000000064e-04 9.938561165478684845e-02 1.740088341640037047e-04 2.104789529260958983e-03
1.321000000000000126e-04 1.236720406455826121e-01 2.260189757651373944e-04 2.178291718403657477e-03
1.623999999999999901e-04 1.520974545104751274e-01 2.888169908545388338e-04 2.240170365918073281e-03
1.689999999999999879e-04 1.582907717069566844e-01 3.027354772999506964e-04 2.254509350360745651e-03
1.758999999999999930e-04 1.647661861691531171e-01 3.173785841705756782e-04 2.268169273277113179e-03
1.830000000000000029e-04 1.714298948183871907e-01 3.325196584577469103e-04 2.276170334580628063e-03
1.901999999999999882e-04 1.781880600978280049e-01 3.479577791899843742e-04 2.292561569242367037e-03
1.977000000000000079e-04 1.852284385240466902e-01 3.641242634600037713e-04 2.299943765467868384e-03
2.054000000000000053e-04 1.924572004474696396e-01 3.808304060475003897e-04 2.322187632288155723e-03
2.079000000000000119e-04 1.948043378760714872e-01 3.864137987380476553e-04 2.435429768083530178e-03
2.081999999999999921e-04 1.950859988578999005e-01 3.870314100985603909e-04 1.950065624557156818e-03
2.090999999999999868e-04 1.959309855029948977e-01 3.881261957135444685e-04 6.411875526909013856e-04
2.159999999999999919e-04 2.024093317906446865e-01 3.940874488768042125e-04 1.199166870571831411e-03
2.231000000000000019e-04 2.090756740932291913e-01 4.013938420547467825e-04 9.928616047829054436e-04
2.311000000000000066e-04 2.165873044433437034e-01 4.085241694843774404e-04 9.056166966301716637e-04
2.401000000000000085e-04 2.250381721984245909e-01 4.159700687886608468e-04 8.565463878902855599e-04
2.500000000000000052e-04 2.343344406330727658e-01 4.237602369176299592e-04 8.194318812157330018e-04
2.642999999999999733e-04 2.477629128650125634e-01 4.345596643180389446e-04 7.890063723638815647e-04
3.052999999999999941e-04 2.862671839140227270e-01 4.644058706720978241e-04 7.612775562167708662e-04
3.533000000000000224e-04 3.313503829113090826e-01 4.987577676308450197e-04 7.626578558207241024e-04
4.075999999999999871e-04 3.823564017794535141e-01 5.381334366106255759e-04 7.813048116943254948e-04
4.679999999999999915e-04 4.390986251953180042e-01 5.832692638200615834e-04 8.096035963157804938e-04
5.341000000000000261e-04 5.012024644415256081e-01 6.346556894078133086e-04 8.452514814113673558e-04
6.059000000000000366e-04 5.686690698184251325e-01 6.930641302632923034e-04 8.862253587289389486e-04
7.661000000000000275e-04 7.192254882508629654e-01 8.328184776562496576e-04 9.702780530519144065e-04
1.262000000000000101e-03 1.185459127778160093e+00 1.338484980802662205e-03 1.198863597978450275e-03
1.894999999999999983e-03 1.780909071169781921e+00 2.123481960401060308e-03 1.437771491635827115e-03
2.673000000000000029e-03 2.513147344746868850e+00 3.261860252001994032e-03 1.671524566936786766e-03
3.605999999999999830e-03 3.391736073717691369e+00 4.828136641022434151e-03 1.893900408978071038e-03
4.709999999999999777e-03 4.431905410739045870e+00 6.903512974832482635e-03 2.096551352830673849e-03
7.496000000000000059e-03 7.058993649504918366e+00 1.289742191321638018e-02 2.466596387205546859e-03
1.119999999999999989e-02 1.055540362104863661e+01 2.212077014004794340e-02 2.809304433764861584e-03
1.600000000000000033e-02 1.509117352747679952e+01 3.559566804390756900e-02 3.132325055719984222e-03
2.206999999999999934e-02 2.083310616724802244e+01 5.457322122755020599e-02 3.477840948757840792e-03
2.947999999999999926e-02 2.785007348564149154e+01 8.049103664263126956e-02 3.909302116317729670e-03
4.268000000000000266e-02 4.036707211535221518e+01 1.353887601042819133e-01 4.862066536253286525e-03
6.219999999999999835e-02 5.891246509830522626e+01 2.419691225623893105e-01 6.630786177272363080e-03
7.316999999999999893e-02 6.935151695866235855e+01 3.161896974764099033e-01 7.588671314871411888e-03
7.595999999999999974e-02 7.200836722020332559e+01 3.371250777904805096e-01 8.170805199905810390e-03
7.685877551020407761e-02 7.286441677229429104e+01 3.442013676680595324e-01 8.361617558160000865e-03
7.775755102040816935e-02 7.372055001705444965e+01 3.514393320460353354e-01 8.546874621616443526e-03
7.865632653061224722e-02 7.457676783000314913e+01 3.588344747783387967e-01 8.727093430028972504e-03
7.955510204081632508e-02 7.543307101778147228e+01 3.663827409915759725e-01 8.902791023151444480e-03
8.045387755102040295e-02 7.628946032547354150e+01 3.740805172535760503e-01 9.074484440737700525e-03
8.135265306122449469e-02 7.714593644360253677e+01 3.819246317523019019e-01 9.242690722541585177e-03
8.225142857142857256e-02 7.800250001481968809e+01 3.899123544838973832e-01 9.407926908316941242e-03
8.315020408163265042e-02 7.885915164030288338e+01 3.980413974488091200e-01 9.570710037817614993e-03
8.404897959183672829e-02 7.971589188588099262e+01 4.063099148550656237e-01 9.731557150797447500e-03
8.494775510204082003e-02 8.057272128789792021e+01 4.147165033279399671e-01 9.890985287010286772e-03
8.584653061224489790e-02 8.142964035883127849e+01 4.232602021253481506e-01 1.004951148620997214e-02
8.674530612244897576e-02 8.228664959267750589e+01 4.319404933584600204e-01 1.020765278815035336e-02
8.764408163265305363e-02 8.314374947011634731e+01 4.407573022171074051e-01 1.036592623258527322e-02
8.854285714285714537e-02 8.400094046346600862e+01 4.497109971996844369e-01 1.052484885926857801e-02
8.944163265306122323e-02 8.485822304143874817e+01 4.588023903473302245e-01 1.068493770795410705e-02
9.034040816326530110e-02 8.571559767370860072e+01 4.680327374822791930e-01 1.084670981839571009e-02
9.123918367346939284e-02 8.657306483529883678e+01 4.774037384503474479e-01 1.101068223034722647e-02
9.213795918367347071e-02 8.743062501079958793e+01 4.869175373676074003e-01 1.117737198356250419e-02
9.303673469387754857e-02 8.828827869842288578e+01 4.965767228713792725e-01 1.134729611779538606e-02
9.393551020408162644e-02 8.914602641390368376e+01 5.063843283757356595e-01 1.152097167279972009e-02
9.483428571428570431e-02 9.000386869425399539e+01 5.163438323317878220e-01 1.169891568832934041e-02
9.573306122448979605e-02 9.086180610137691360e+01 5.264591584930812251e-01 1.188164520413810543e-02
9.663183673469387391e-02 9.171983922554775859e+01 5.367346761864894011e-01 1.206967725997984756e-02
9.753061224489795178e-02 9.257796868876819474e+01 5.471752005890518911e-01 1.226352889560841999e-02
9.842938775510204352e-02 9.343619514799927117e+01 5.577859930112520903e-01 1.246371715077766555e-02
9.932816326530612139e-02 9.429451929827871481e+01 5.685727611872825049e-01 1.267075906524142009e-02
1.002269387755101993e-01 9.515294187572810358e+01 5.795416595728942744e-01 1.288517167875353510e-02
1.011257142857142910e-01 9.601146366045551872e+01 5.906992896514661195e-01 1.310747203106786204e-02
1.020244897959183689e-01 9.687008547935678848e+01 6.020527002489759472e-01 1.333817716193822986e-02
1.029232653061224467e-01 9.772880820882156172e+01 6.136093878585966443e-01 1.357780411111849175e-02
1.038220408163265246e-01 9.858763277734725250e+01 6.253772969756715705e-01 1.382686991836249053e-02
1.047208163265306025e-01 9.944656016806577270e+01 6.373648204438669973e-01 1.408589162342407074e-02
1.056195918367346942e-01 1.003055914211860369e+02 6.495807998133285022e-01 1.435538626605708037e-02
1.065183673469387721e-01 1.011647276363573695e+02 6.620345257117004056e-01 1.463587088601535878e-02
1.074171428571428499e-01 1.020239699749548947e+02 6.747357382289033145e-01 1.492786252305274702e-02
1.083159183673469417e-01 1.028833196622933031e+02 6.876946273165855938e-01 1.523187821692310179e-02
1.092146938775510195e-01 1.037427779897692375e+02 7.009218332031990073e-01 1.554843500738025547e-02
1.101134693877550974e-01 1.046023463169370302e+02 7.144284468256749676e-01 1.587804993417805954e-02
1.110122448979591891e-01 1.054620260735210451e+02 7.282260102786972666e-01 1.622124003707035508e-02
1.119110204081632531e-01 1.063218187613647814e+02 7.423265172825981306e-01 1.657852235581098316e-02
1.128097959183673449e-01 1.071817259563234188e+02 7.567424136709274274e-01 1.695041393015379871e-02
1.137085714285714227e-01 1.080417493100978135e+02 7.714865978987559547e-01 1.733743179985263588e-02
1.146073469387755006e-01 1.089018905520163543e+02 7.865724215728151503e-01 1.774009300466133920e-02
1.155061224489795924e-01 1.097621514907643245e+02 8.020136900045751194e-01 1.815891458433376709e-02
1.164048979591836702e-01 1.106225340160635540e+02 8.178246627873957397e-01 1.859441357862375022e-02
1.173036734693877481e-01 1.114830401003057290e+02 8.340200543989020332e-01 1.904710702728512964e-02
1.182024489795918398e-01 1.123436718001394894e+02 8.506150348297484287e-01 1.951751197007176725e-02
1.191012244897959177e-01 1.132044312580140826e+02 8.676252302399594107e-01 2.000614544673748330e-02
1.199999999999999956e-01 1.140653207036825307e+02 8.850667236440515895e-01 2.051352449703614661e-02
1.213533670994965952e-01 1.153618902227868546e+02 9.121779833359487943e-01 2.130637594747382402e-02
1.227067341989931809e-01 1.166587678774233865e+02 9.403296167715788911e-01 2.210801347679047096e-02
1.240601012984897805e-01 1.179559618096639753e+02 9.695335898327260837e-01 2.291827376452294091e-02
1.254134683979863663e-01 1.192534801134682851e+02 9.998016839588768079e-01 2.373699448765832776e-02
1.267668354974829659e-01 1.205513308342584367e+02 1.031145497494471819e+00 2.456401434018406008e-02
1.281202025969795655e-01 1.218495219685258348e+02 1.063576447044671136e+00 2.539917305200289563e-02
1.294735696964761651e-01 1.231480614634691335e+02 1.097105768839219175e+00 2.624231140723618655e-02
1.308269367959727369e-01 1.244469572166620566e+02 1.131744520104003948e+00 2.709327126192653465e-02
1.321803038954693366e-01 1.257462170757484188e+02 1.167503580439940514e+00 2.795189556116178115e-02
1.335336709949659362e-01 1.270458488381643605e+02 1.204393653208812198e+00 2.881802835563282775e-02
1.348870380944625358e-01 1.283458602508860622e+02 1.242425266925746952e+00 2.969151481764139427e-02
1.362404051939591354e-01 1.296462590102005663e+02 1.281608776658000881e+00 3.057220125657157325e-02
1.375937722934557073e-01 1.309470527615010838e+02 1.321954365429753198e+00 3.145993513383981560e-02
1.389471393929523069e-01 1.322482490991031625e+02 1.363472045632632357e+00 3.235456507733673603e-02
1.403005064924489065e-01 1.335498555660819875e+02 1.406171660441692950e+00 3.325594089537171200e-02
1.416538735919455061e-01 1.348518796541299878e+02 1.450062885236608645e+00 3.416391359013550011e-02
1.430072406914421057e-01 1.361543288034330601e+02 1.495155229027828270e+00 3.507833537069009189e-02
1.443606077909386776e-01 1.374572104025652379e+02 1.541458035887472988e+00 3.599905966549883651e-02
1.457139748904352772e-01 1.387605317884008116e+02 1.588980486384767632e+00 3.692594113450736043e-02
1.470673419899318768e-01 1.400643002460428193e+02 1.637731599025789464e+00 3.785883568078591416e-02
1.484207090894284764e-01 1.413685230087672267e+02 1.687720231697362960e+00 3.879760046174385996e-02
1.497740761889250760e-01 1.426732072579837336e+02 1.738955083114907874e+00 3.974209389992602870e-02
1.511274432884216479e-01 1.439783601232087165e+02 1.791444694274075156e+00 4.069217569340052854e-02
1.524808103879182475e-01 1.452839886820542858e+02 1.845197449906015530e+00 4.164770682574813615e-02
1.538341774874148471e-01 1.465900999602296224e+02 1.900221579936116179e+00 4.260854957566147239e-02
1.551875445869114467e-01 1.478967009315555288e+02 1.956525160946082087e+00 4.357456752616357259e-02
1.565409116864080463e-01 1.492037985179904922e+02 2.014116117639213943e+00 4.454562557345432411e-02
1.578942787859046182e-01 1.505113995896697077e+02 2.073002224308759800e+00 4.552158993539305587e-02
1.592476458854012178e-01 1.518195109649546453e+02 2.133191106309230367e+00 4.650232815962567628e-02
1.606010129848978174e-01 1.531281394104929632e+02 2.194690241530545372e+00 4.748770913136408228e-02
1.619543800843944170e-01 1.544372916412900736e+02 2.257506961874930607e+00 4.847760308082608299e-02
1.633077471838910166e-01 1.557469743207899171e+02 2.321648454736450873e+00 4.947188159034297816e-02
1.646611142833875885e-01 1.570571940609650028e+02 2.387121764483087993e+00 5.047041760114245879e-02
1.660144813828841881e-01 1.583679574224166231e+02 2.453933793941285746e+00 5.147308541981406721e-02
1.673678484823807877e-01 1.596792709144826574e+02 2.522091305882860901e+00 5.247976072446428747e-02
1.687212155818773873e-01 1.609911409953556642e+02 2.591600924514228854e+00 5.349032057056804512e-02
1.700745826813739869e-01 1.623035740722073399e+02 2.662469136967851924e+00 5.450464339652369428e-02
1.714279497808705588e-01 1.636165765013219016e+02 2.734702294795851252e+00 5.552260902891780620e-02
1.727813168803671584e-01 1.649301545882368316e+02 2.808306615465725908e+00 5.654409868750649715e-02
1.741346839798637580e-01 1.662443145878913242e+02 2.883288183858098819e+00 5.756899498991935316e-02
1.754880510793603576e-01 1.675590627047802741e+02 2.959652953766466421e+00 5.859718195609254360e-02
1.768414181788569572e-01 1.688744050931176730e+02 3.037406749398877448e+00 5.962854501243682742e-02
1.781947852783535291e-01 1.701903478570039567e+02 3.116555266881500863e+00 6.066297099574675250e-02
1.795481523778501287e-01 1.715068970506009123e+02 3.197104075764048758e+00 6.170034815685671026e-02
1.809015194773467283e-01 1.728240586783132642e+02 3.279058620526990708e+00 6.274056616404954934e-02
1.822548865768433279e-01 1.741418386949739840e+02 3.362424222090551584e+00 6.378351610622355616e-02
1.836082536763399276e-01 1.754602430060383824e+02 3.447206079325437766e+00 6.482909049582297190e-02
1.849616207758364994e-01 1.767792774677801901e+02 3.533409270565265548e+00 6.587718327153811726e-02
1.863149878753330990e-01 1.780989478874960241e+02 3.621038755120675301e+00 6.692768980077970498e-02
2.641452942452242603e-01 2.555165766304177737e+02 1.219796046522578159e+01 1.530553328244060318e-01
3.419756006151154493e-01 3.364439900860783155e+02 2.815830676809754607e+01 2.391829758480324142e-01
4.198059069850065828e-01 4.218672521477588475e+02 5.238332506051320081e+01 3.253106188716586855e-01
4.976362133548977162e-01 5.125809945867509896e+02 8.594180689136433671e+01 4.114382618952849846e-01
5.754665197247889052e-01 6.093092708783215130e+02 1.300772705137713388e+02 4.975659049189113947e-01
6.532968260946800942e-01 7.127588358292551902e+02 1.862119578168108376e+02 5.836935479425376938e-01
7.311271324645711722e-01 8.236417321169366232e+02 2.556546621491194173e+02 6.647238988324558617e-01
8.089574388344623612e-01 9.426055021824537334e+02 3.369249966065211765e+02 6.999586753620374857e-01
8.867877452043535502e-01 1.069880977637628348e+03 4.300094144225446371e+02 7.596524892059678402e-01
9.646180515742447392e-01 1.205955555929732100e+03 5.413231504638579281e+02 8.698199108621299525e-01
1.042448357944135928e+00 1.351832811317168307e+03 6.624161377593360385e+02 7.950164157446099056e-01
1.120278664314027006e+00 1.506634181602844819e+03 7.814570456484506167e+02 7.455980799323145281e-01
1.198108970683918306e+00 1.669712981411937562e+03 9.046652931228582020e+02 7.647603833120465433e-01
1.275939277053809384e+00 1.841100649081821530e+03 1.037435296667548528e+03 7.839226866917785586e-01
1.353769583423700684e+00 2.020885101150375249e+03 1.180155274887587893e+03 8.030849900715106848e-01
1.431599889793591762e+00 2.209166912738707651e+03 1.333228806059624048e+03 8.222472934512425891e-01
1.509430196163482840e+00 2.406058083363473088e+03 1.497074768022066792e+03 8.414095968309746043e-01
1.587260502533374140e+00 2.611681057384855194e+03 1.672127377609651603e+03 8.605719002107067306e-01
1.665090808903265218e+00 2.826167940846272359e+03 1.858836307878561456e+03 8.797342035904387458e-01
1.742921115273156518e+00 3.049659871969656251e+03 2.057666867468359214e+03 8.988965069701707611e-01
1.820751421643047596e+00 3.282306513445851579e+03 2.269100230670597284e+03 9.180588103499027763e-01
1.898581728012938674e+00 3.524265642425590613e+03 2.493633709753015410e+03 9.372211137296347916e-01
1.976412034382829974e+00 3.775702819753095810e+03 2.731781063224784248e+03 9.563834171093668068e-01
2.054242340752721052e+00 4.036787529945458573e+03 2.979958908261849956e+03 9.451686770480871580e-01
