# density  energy_density  pressure   sound_speed_squared  [All in nuclear units]
2.720000000000000022e-14 2.529924618736292620e-11 1.061056609100270887e-19 3.766610435412189122e-08
1.269999999999999890e-13 1.181251617980081254e-10 4.870113551826584858e-18 6.497781477172163475e-08
6.929999999999999754e-13 6.445728594625782745e-10 1.018299070687946017e-16 3.033770597342807186e-07
6.295000000000000137e-12 5.855111460395753757e-09 5.487150723824490656e-15 1.763710043904196507e-06
1.581000000000000150e-11 1.470523320212576141e-08 2.904239460150760759e-14 3.559434472327477622e-06
3.971999999999999958e-11 3.694456170323160790e-08 1.439340266754906811e-13 6.772854871245677111e-06
9.975999999999999982e-11 9.278976412613005154e-08 6.812143616221268841e-13 1.246890511177539320e-05
2.505999999999999928e-10 2.330928829758143313e-07 3.107749196951638608e-12 2.212095130576091967e-05
6.294000000000000186e-10 5.854398883216247602e-07 1.363250409771533549e-11 3.761981047239428883e-05
1.581000000000000021e-09 1.470619631082054101e-06 5.726014178088476303e-11 6.095350986710739404e-05
3.971999999999999932e-09 3.694861084648016046e-06 2.210019573374265380e-10 8.628023653304385055e-05
5.000000000000000105e-09 4.651201787816927976e-06 3.071485916280120014e-10 9.387863480799757518e-05
9.975999999999999465e-09 9.280587964640925786e-06 8.385361004129998845e-10 1.356922228656245837e-04
1.989999999999999952e-08 1.851419242998081003e-05 2.287763168863418088e-09 1.782101978513718314e-04
3.972999999999999908e-08 3.696699295748789187e-05 6.061583099087538954e-09 2.308134738384234820e-04
7.925999999999999637e-08 7.375765469301719828e-05 1.575347858094044765e-08 2.960532096713864875e-04
1.580999999999999930e-07 1.471491184379128891e-04 3.910429618672550719e-08 3.402859755131850544e-04
1.991000000000000027e-07 1.853209783927820692e-04 5.252045687899177454e-08 3.626488188833278743e-04
3.155999999999999938e-07 2.938002528823880299e-04 9.730770378831954314e-08 4.630767356912104081e-04
5.000999999999999849e-07 4.656344063839075714e-04 1.837494945860225819e-07 5.430301232045120323e-04
6.295999999999999732e-07 5.862651417037388971e-04 2.503103884558263872e-07 5.605192962670089638e-04
9.666999999999999941e-07 9.003386739730535665e-04 4.324450868778576936e-07 5.993081670211623108e-04
1.531999999999999901e-06 1.427170885631398036e-03 7.780217275717420968e-07 7.125938556504039095e-04
2.506999999999999883e-06 2.336134972129507662e-03 1.471005394641589826e-06 8.121876172121876309e-04
3.974000000000000407e-06 3.704315759716615697e-03 2.695705763844323844e-06 9.780674166779417152e-04
4.830000000000000343e-06 4.502887798316278223e-03 3.503988717694660908e-06 1.046253037768318664e-03
6.080999999999999885e-06 5.670217999231269741e-03 4.731126407333307547e-06 1.056224360839501646e-03
7.930000000000000308e-06 7.396012414119570652e-03 6.599662989063778187e-06 1.109203753630785610e-03
9.982000000000000313e-06 9.311815711689977113e-03 8.879881089227186733e-06 1.271216815433141075e-03
1.256999999999999993e-05 1.172874412604260098e-02 1.207676739913533738e-05 1.374195438212825332e-03
1.521999999999999997e-05 1.420427250933824909e-02 1.547541302213394990e-05 1.371610497379100249e-03
1.991000000000000080e-05 1.858690797761085312e-02 2.160710455847765458e-05 1.426578142835871997e-03
2.506999999999999883e-05 2.341050104039446925e-02 2.908031724375689851e-05 1.672007475975408053e-03
2.790999999999999875e-05 2.606604784714952258e-02 3.357009132255487721e-05 1.709425557744154774e-03
3.806999999999999973e-05 3.556967988784798945e-02 4.986781576435106434e-05 1.720407281314112165e-03
5.063000000000000145e-05 4.732434580343149871e-02 7.073400252905581275e-05 1.829889149838781265e-03
6.592000000000000583e-05 6.164112392498975052e-02 9.765037643900635188e-05 1.930242980462695823e-03
8.433000000000000066e-05 7.888776783401378612e-02 1.317235490470395893e-04 2.021055815200022837e-03
1.062000000000000064e-04 9.938561165478684845e-02 1.740088341640037047e-04 2.104789529260958983e-03
1.321000000000000126e-04 1.236720406455826121e-01 2.260189757651373944e-04 2.178291718403657477e-03
1.623999999999999901e-04 1.520974545104751274e-01 2.888169908545388338e-04 2.240170365918073281e-03
1.689999999999999879e-04 1.582907717069566844e-01 3.027354772999506964e-04 2.254509350360745651e-03
1.758999999999999930e-04 1.647661861691531171e-01 3.173785841705756782e-04 2.268169273277113179e-03
1.830000000000000029e-04 1.714298948183871907e-01 3.325196584577469103e-04 2.276170334580628063e-03
1.901999999999999882e-04 1.781880600978280049e-01 3.479577791899843742e-04 2.292561569242367037e-03
1.977000000000000079e-04 1.852284385240466902e-01 3.641242634600037713e-04 2.299943765467868384e-03
2.054000000000000053e-04 1.924572004474696396e-01 3.808304060475003897e-04 2.322187632288155723e-03
2.079000000000000119e-04 1.948043378760714872e-01 3.864137987380476553e-04 2.435429768083530178e-03
2.081999999999999921e-04 1.950859988578999005e-01 3.870314100985603909e-04 1.950065624557156818e-03
2.090999999999999868e-04 1.959309855029948977e-01 3.881261957135444685e-04 6.411875526909013856e-04
2.159999999999999919e-04 2.024093317906446865e-01 3.940874488768042125e-04 1.199166870571831411e-03
2.231000000000000019e-04 2.090756740932291913e-01 4.013938420547467825e-04 9.928616047829054436e-04
2.311000000000000066e-04 2.165873044433437034e-01 4.085241694843774404e-04 9.056166966301716637e-04
2.401000000000000085e-04 2.250381721984245909e-01 4.159700687886608468e-04 8.565463878902855599e-04
2.500000000000000052e-04 2.343344406330727658e-01 4.237602369176299592e-04 8.194318812157330018e-04
2.642999999999999733e-04 2.477629128650125634e-01 4.345596643180389446e-04 7.890063723638815647e-04
3.052999999999999941e-04 2.862671839140227270e-01 4.644058706720978241e-04 7.612775562167708662e-04
3.533000000000000224e-04 3.313503829113090826e-01 4.987577676308450197e-04 7.626578558207241024e-04
4.075999999999999871e-04 3.823564017794535141e-01 5.381334366106255759e-04 7.813048116943254948e-04
4.679999999999999915e-04 4.390986251953180042e-01 5.832692638200615834e-04 8.096035963157804938e-04
5.341000000000000261e-04 5.012024644415256081e-01 6.346556894078133086e-04 8.452514814113673558e-04
6.059000000000000366e-04 5.686690698184251325e-01 6.930641302632923034e-04 8.862253587289389486e-04
7.661000000000000275e-04 7.192254882508629654e-01 8.328184776562496576e-04 9.702780530519144065e-04
1.262000000000000101e-03 1.185459127778160093e+00 1.338484980802662205e-03 1.198863597978450275e-03
1.894999999999999983e-03 1.780909071169781921e+00 2.123481960401060308e-03 1.437771491635827115e-03
2.673000000000000029e-03 2.513147344746868850e+00 3.261860252001994032e-03 1.671524566936786766e-03
3.605999999999999830e-03 3.391736073717691369e+00 4.828136641022434151e-03 1.893900408978071038e-03
4.709999999999999777e-03 4.431905410739045870e+00 6.903512974832482635e-03 2.096551352830673849e-03
7.496000000000000059e-03 7.058993649504918366e+00 1.289742191321638018e-02 2.466596387205546859e-03
1.119999999999999989e-02 1.055540362104863661e+01 2.212077014004794340e-02 2.809304433764861584e-03
1.600000000000000033e-02 1.509117352747679952e+01 3.559566804390756900e-02 3.132325055719984222e-03
2.206999999999999934e-02 2.083310616724802244e+01 5.457322122755020599e-02 3.477840948757840792e-03
2.947999999999999926e-02 2.785007348564149154e+01 8.049103664263126956e-02 3.909302116317729670e-03
4.268000000000000266e-02 4.036707211535221518e+01 1.353887601042819133e-01 4.862066536253286525e-03
6.219999999999999835e-02 5.891246509830522626e+01 2.419691225623893105e-01 6.630786177272363080e-03
7.316999999999999893e-02 6.935151695866235855e+01 3.161896974764099033e-01 7.588671314871411888e-03
7.595999999999999974e-02 7.200836722020332559e+01 3.371250777904805096e-01 8.170805199905812125e-03
7.685877551020407761e-02 7.286441683414169290e+01 3.442119518553905522e-01 8.386343116919610374e-03
7.775755102040816935e-02 7.372055042712315753e+01 3.514884813209022130e-01 8.612231413381169279e-03
7.865632653061224722e-02 7.457676927095172914e+01 3.589633991280207215e-01 8.848055685786282432e-03
7.955510204081632508e-02 7.543307470616296939e+01 3.666450874531299031e-01 9.093401530630771182e-03
8.045387755102040295e-02 7.628946813573109864e+01 3.745415776504542604e-01 9.347854544410448205e-03
8.135265306122449469e-02 7.714595101905611330e+01 3.826605501898941442e-01 9.611000323621124442e-03
8.225142857142857256e-02 7.800252486621698722e+01 3.910093345891595407e-01 9.882424464758603894e-03
8.315020408163265042e-02 7.885919123247404627e+01 3.995949093392506257e-01 1.016171256431870271e-02
8.404897959183672829e-02 7.971595171300903360e+01 4.084239018224389839e-01 1.044845021879723182e-02
8.494775510204082003e-02 8.057280793788922324e+01 4.175025882220114171e-01 1.074222302469001085e-02
8.584653061224489790e-02 8.142976156724317605e+01 4.268368934231301370e-01 1.104261657849283165e-02
8.674530612244897576e-02 8.228681428663811914e+01 4.364323909042570060e-01 1.134921647670152078e-02
8.764408163265305363e-02 8.314396780264696929e+01 4.462943026186672046e-01 1.166160831581188571e-02
8.854285714285714537e-02 8.400122383859677200e+01 4.564274988656615295e-01 1.197937769231974085e-02
8.944163265306122323e-02 8.485858413048778459e+01 4.668364981511545775e-01 1.230211020272088847e-02
9.034040816326530110e-02 8.571605042307547251e+01 4.775254670373894617e-01 1.262939144351114124e-02
9.123918367346939284e-02 8.657362446610679285e+01 4.884982199815869897e-01 1.296080701118632224e-02
9.213795918367347071e-02 8.743130801070297764e+01 4.997582191634026283e-01 1.329594250224223201e-02
9.303673469387754857e-02 8.828910280588199555e+01 5.113085743011195339e-01 1.363438351317468149e-02
9.393551020408162644e-02 8.914701059521367199e+01 5.231520424565553329e-01 1.397571564047948335e-02
9.483428571428570431e-02 9.000503311360031944e+01 5.352910278287142942e-01 1.431952448065245027e-02
9.573306122448979605e-02 9.086317208417784741e+01 5.477275815362603328e-01 1.466539563018939840e-02
9.663183673469387391e-02 9.172142921533144033e+01 5.604634013889295829e-01 1.501291468558613000e-02
9.753061224489795178e-02 9.257980619781928056e+01 5.734998316480471869e-01 1.536166724333846122e-02
9.842938775510204352e-02 9.343830470200099114e+01 5.868378627763438660e-01 1.571123889994220299e-02
9.932816326530612139e-02 9.429692637516390619e+01 6.004781311773114139e-01 1.606121525189316279e-02
1.002269387755101993e-01 9.515567283894488071e+01 6.144209189243694524e-01 1.641118189568715330e-02
1.011257142857142910e-01 9.601454568684117419e+01 6.286661534801442075e-01 1.676072442781999239e-02
1.020244897959183689e-01 9.687354648180802030e+01 6.432134074061962581e-01 1.710942844478748059e-02
1.029232653061224467e-01 9.773267675393725540e+01 6.580618980635631887e-01 1.745687954308543233e-02
1.038220408163265246e-01 9.859193799821561299e+01 6.732104873045039461e-01 1.780266331920966200e-02
1.047208163265306025e-01 9.945133167235722738e+01 6.886576811558685618e-01 1.814636536965598401e-02
1.056195918367346942e-01 1.003108591947075467e+02 7.044016294945324441e-01 1.848757129092020585e-02
1.065183673469387721e-01 1.011705219422165385e+02 7.204401257153631999e-01 1.882586667949813150e-02
1.074171428571428499e-01 1.020303212484769944e+02 7.367706063922111470e-01 1.916083713188557885e-02
1.083159183673469417e-01 1.028902584018257471e+02 7.533901509324305579e-01 1.949206824457836579e-02
1.092146938775510195e-01 1.037503346435049565e+02 7.702954812254639849e-01 1.981914561407228936e-02
1.101134693877550974e-01 1.046105511658809206e+02 7.874829612860425598e-01 2.014165483686316399e-02
1.110122448979591891e-01 1.054709091107185088e+02 8.049485968925665924e-01 2.045918150944681449e-02
1.119110204081632531e-01 1.063314095675081745e+02 8.226880352212551095e-01 2.077131122831903792e-02
1.128097959183673449e-01 1.071920535718438146e+02 8.406965644766706269e-01 2.107762958997565217e-02
1.137085714285714227e-01 1.080528421038493008e+02 8.589691135192293325e-01 2.137772219091246123e-02
1.146073469387755006e-01 1.089137760866519784e+02 8.775002514903433859e-01 2.167117462762528299e-02
1.155061224489795924e-01 1.097748563849013408e+02 8.962841874358347116e-01 2.195757249660993185e-02
1.164048979591836702e-01 1.106360838033299245e+02 9.153147699282871974e-01 2.223650139436221182e-02
1.173036734693877481e-01 1.114974590853570078e+02 9.345854866890169754e-01 2.250754691737793384e-02
1.182024489795918398e-01 1.123589829117312036e+02 9.540894642103447953e-01 2.277029466215291925e-02
1.191012244897959177e-01 1.132206558992119056e+02 9.738194673788754807e-01 2.302433022518296166e-02
1.199999999999999956e-01 1.140824785992876542e+02 9.937678991005010065e-01 2.326923920296388240e-02
1.235056695639883267e-01 1.174454595185338803e+02 1.073536263701025506e+00 2.416960620862109582e-02
1.270113391279766579e-01 1.208107488757119370e+02 1.156431881200075784e+00 2.509522174414538509e-02
1.305170086919649752e-01 1.241783705011582981e+02 1.242544389996456333e+00 2.604595905954268029e-02
1.340226782559533203e-01 1.275483493511581230e+02 1.331963282320511421e+00 2.702169603652396224e-02
1.375283478199416376e-01 1.309207114161406196e+02 1.424777936854473959e+00 2.802232269441559676e-02
1.410340173839299549e-01 1.342954836393870721e+02 1.521077676288743241e+00 2.904774835181098830e-02
1.445396869479183000e-01 1.376726938455520326e+02 1.620951848809689011e+00 3.009790846735708666e-02
1.480453565119066173e-01 1.410523706783745865e+02 1.724489932589198693e+00 3.117277117928933181e-02
1.515510260758949346e-01 1.444345435470282268e+02 1.831781662408908939e+00 3.227234355995543813e-02
1.550566956398832796e-01 1.478192425806109611e+02 1.942917177603997070e+00 3.339667759851011608e-02
1.585623652038715969e-01 1.512064985903288914e+02 2.057987190553569601e+00 3.454587592218655995e-02
1.620680347678599420e-01 1.545963430389690245e+02 2.177083174977829660e+00 3.572009726400643403e-02
1.655737043318482593e-01 1.579888080172926550e+02 2.300297573326999689e+00 3.691956168245288245e-02
1.690793738958366044e-01 1.613839262270142285e+02 2.427724022564159423e+00 3.814455553647053826e-02
1.725850434598249217e-01 1.647817309700572821e+02 2.559457597654086758e+00 3.939543621715261429e-02
1.760907130238132390e-01 1.681822561438013963e+02 2.695595072073530218e+00 4.067263663560906350e-02
1.795963825878015840e-01 1.715855362420568042e+02 2.836235194655332137e+00 4.197666946476811406e-02
1.831020521517899013e-01 1.749916063615186488e+02 2.981478982070029815e+00 4.330813113123543195e-02
1.866077217157782187e-01 1.784005022134703609e+02 3.131430026234210295e+00 4.466770555180885061e-02
1.901133912797665637e-01 1.818122601405152921e+02 3.286194815915346901e+00 4.605616760781917896e-02
1.936190608437548810e-01 1.852269171381270780e+02 3.445883071778481632e+00 4.747438634913031530e-02
1.971247304077431983e-01 1.886445108808212581e+02 3.610608094091136255e+00 4.892332791838392703e-02
2.006303999717315434e-01 1.920650797527530926e+02 3.780487122269551747e+00 5.040405818491097006e-02
2.041360695357198884e-01 1.954886628825537969e+02 3.955641705412110909e+00 5.191774507665539162e-02
2.076417390997082058e-01 1.989153001822241720e+02 4.136198082924780195e+00 5.346566059746326455e-02
2.111474086636965231e-01 2.023450323899043042e+02 4.322287574298927737e+00 5.504918251618422242e-02
2.146530782276848681e-01 2.057779011163408711e+02 4.514046977054202436e+00 5.666979571321457965e-02
2.181587477916731854e-01 2.092139488948759833e+02 4.711618971808603007e+00 5.832909316938245103e-02
2.216644173556615027e-01 2.126532192347800390e+02 4.915152533384641309e+00 6.002877658144135931e-02
2.251700869196498478e-01 2.160957566777502450e+02 5.124803346804911897e+00 6.177065658789759189e-02
2.286757564836381651e-01 2.195416068573946120e+02 5.340734226972752019e+00 6.355665258845716314e-02
2.321814260476264824e-01 2.229908165615209441e+02 5.563115540774264289e+00 6.538879214003900930e-02
2.356870956116148275e-01 2.264434337970447189e+02 5.792125630276995452e+00 6.726920991206780664e-02
2.391927651756031725e-01 2.298995078573252897e+02 6.027951235638461469e+00 6.920014618363404257e-02
2.426984347395914621e-01 2.333590893917415769e+02 6.270787916274658258e+00 7.118394486509452279e-02
2.462041043035798071e-01 2.368222304773063627e+02 6.520840468774983023e+00 7.322305102678303146e-02
2.497097738675681244e-01 2.402889846921161734e+02 6.778323339985881546e+00 7.532000791771349679e-02
2.532154434315564417e-01 2.437594071904309487e+02 7.043461033621525758e+00 7.747745345748253964e-02
2.567211129955447868e-01 2.472335547791686849e+02 7.316488508695671911e+00 7.969811618502013750e-02
2.602267825595331319e-01 2.507114859955919712e+02 7.597651568005381328e+00 8.198481064839149846e-02
2.637324521235214769e-01 2.541932611859643600e+02 7.887207234834325398e+00 8.434043222051881838e-02
2.672381216875097665e-01 2.576789425849390796e+02 8.185424115981234650e+00 8.676795132646937525e-02
2.707437912514981115e-01 2.611685943954421418e+02 8.492582749158030353e+00 8.927040706883676568e-02
2.742494608154864011e-01 2.646622828688021514e+02 8.808975932742121984e+00 9.185090023872752307e-02
2.777551303794747461e-01 2.681600763848717293e+02 9.134909035808961519e+00 9.451258570098018674e-02
2.812607999434630912e-01 2.716620455318798122e+02 9.470700286313093130e+00 9.725866414316461372e-02
2.847664695074514363e-01 2.751682631857451042e+02 9.816681035230933716e+00 1.000923731799278626e-01
2.882721390714397813e-01 2.786788045885746783e+02 1.017319599442357614e+01 1.030169778042988454e-01
2.917778086354280709e-01 2.821937474260643057e+02 1.054060344592474863e+01 1.060357601802722205e-01
3.674558125408274867e-01 3.599684422077313002e+02 2.823654517613586279e+01 3.419705943989069241e-01
4.431338164462269580e-01 4.431798213743941233e+02 6.708724101108427362e+01 5.779054286175417943e-01
5.188118203516263183e-01 5.346150007773004518e+02 1.217965526704580697e+02 6.168000897937978566e-01
5.944898242570257896e-01 6.345822276551205050e+02 1.821413917124045554e+02 5.927915307480179363e-01
6.701678281624252609e-01 7.423914908832998663e+02 2.446557536954483680e+02 5.687829717022380160e-01
7.458458320678247322e-01 8.573566745113498655e+02 3.085785628880362310e+02 5.447744126564580958e-01
8.215238359732239815e-01 9.789702232975155312e+02 3.784643932334992655e+02 6.023668211207282575e-01
8.972018398786234528e-01 1.107538892656240478e+03 4.610018743832523000e+02 6.783706869434273923e-01
9.728798437840229241e-01 1.243600224444268406e+03 5.528155106162572565e+02 6.717931309408818885e-01
1.048557847689422395e+00 1.386963705317565655e+03 6.486183716718614960e+02 6.652155749383364958e-01
1.124235851594821867e+00 1.537380484433985202e+03 7.481493366137430030e+02 6.586380189357909920e-01
1.199913855500221338e+00 1.694618205856762870e+03 8.511630715484969869e+02 6.520604629332454882e-01
1.275591859405620587e+00 1.858458817352332971e+03 9.574281573477013580e+02 6.454829069307000955e-01
1.351269863311020059e+00 2.028696799986467113e+03 1.066725564604772217e+03 6.389053509281545917e-01
1.426947867216419530e+00 2.205137717390055514e+03 1.178847393288383046e+03 6.323277949256090880e-01
1.502625871121819001e+00 2.387597012117527811e+03 1.293595817781020060e+03 6.257502389230635842e-01
1.578303875027218472e+00 2.575898995943901355e+03 1.410782193788756786e+03 6.191726829205181915e-01
1.653981878932617944e+00 2.769875994466180600e+03 1.530226294608509079e+03 6.125951269179726877e-01
1.729659882838017193e+00 2.969367615979343100e+03 1.651755652059619706e+03 6.060175709154271839e-01
1.805337886743416664e+00 3.174220121545193706e+03 1.775204983050704413e+03 5.994400149128817912e-01
1.881015890648816136e+00 3.384285878281830719e+03 1.900415686923643534e+03 5.928624589103362874e-01
1.956693894554215607e+00 3.599422881714473988e+03 2.027235401834497907e+03 5.862849029077907836e-01
2.032371898459615078e+00 3.819494335912675524e+03 2.155517610793703170e+03 5.797073469052453909e-01
2.108049902365014550e+00 4.044368282347211789e+03 2.285121289800527848e+03 5.731297909026998871e-01
