# density  energy_density  pressure   sound_speed_squared  [All in nuclear units]
2.720000000000000022e-14 2.529924618736292620e-11 1.061056609100270887e-19 3.766610435412189122e-08
1.269999999999999890e-13 1.181251617980081254e-10 4.870113551826584858e-18 6.497781477172163475e-08
6.929999999999999754e-13 6.445728594625782745e-10 1.018299070687946017e-16 3.033770597342807186e-07
6.295000000000000137e-12 5.855111460395753757e-09 5.487150723824490656e-15 1.763710043904196507e-06
1.581000000000000150e-11 1.470523320212576141e-08 2.904239460150760759e-14 3.559434472327477622e-06
3.971999999999999958e-11 3.694456170323160790e-08 1.439340266754906811e-13 6.772854871245677111e-06
9.975999999999999982e-11 9.278976412613005154e-08 6.812143616221268841e-13 1.246890511177539320e-05
2.505999999999999928e-10 2.330928829758143313e-07 3.107749196951638608e-12 2.212095130576091967e-05
6.294000000000000186e-10 5.854398883216247602e-07 1.363250409771533549e-11 3.761981047239428883e-05
1.581000000000000021e-09 1.470619631082054101e-06 5.726014178088476303e-11 6.095350986710739404e-05
3.971999999999999932e-09 3.694861084648016046e-06 2.210019573374265380e-10 8.628023653304385055e-05
5.000000000000000105e-09 4.651201787816927976e-06 3.071485916280120014e-10 9.387863480799757518e-05
9.975999999999999465e-09 9.280587964640925786e-06 8.385361004129998845e-10 1.356922228656245837e-04
1.989999999999999952e-08 1.851419242998081003e-05 2.287763168863418088e-09 1.782101978513718314e-04
3.972999999999999908e-08 3.696699295748789187e-05 6.061583099087538954e-09 2.308134738384234820e-04
7.925999999999999637e-08 7.375765469301719828e-05 1.575347858094044765e-08 2.960532096713864875e-04
1.580999999999999930e-07 1.471491184379128891e-04 3.910429618672550719e-08 3.402859755131850544e-04
1.991000000000000027e-07 1.853209783927820692e-04 5.252045687899177454e-08 3.626488188833278743e-04
3.155999999999999938e-07 2.938002528823880299e-04 9.730770378831954314e-08 4.630767356912104081e-04
5.000999999999999849e-07 4.656344063839075714e-04 1.837494945860225819e-07 5.430301232045120323e-04
6.295999999999999732e-07 5.862651417037388971e-04 2.503103884558263872e-07 5.605192962670089638e-04
9.666999999999999941e-07 9.003386739730535665e-04 4.324450868778576936e-07 5.993081670211623108e-04
1.531999999999999901e-06 1.427170885631398036e-03 7.780217275717420968e-07 7.125938556504039095e-04
2.506999999999999883e-06 2.336134972129507662e-03 1.471005394641589826e-06 8.121876172121876309e-04
3.974000000000000407e-06 3.704315759716615697e-03 2.695705763844323844e-06 9.780674166779417152e-04
4.830000000000000343e-06 4.502887798316278223e-03 3.503988717694660908e-06 1.046253037768318664e-03
6.080999999999999885e-06 5.670217999231269741e-03 4.731126407333307547e-06 1.056224360839501646e-03
7.930000000000000308e-06 7.396012414119570652e-03 6.599662989063778187e-06 1.109203753630785610e-03
9.982000000000000313e-06 9.311815711689977113e-03 8.879881089227186733e-06 1.271216815433141075e-03
1.256999999999999993e-05 1.172874412604260098e-02 1.207676739913533738e-05 1.374195438212825332e-03
1.521999999999999997e-05 1.420427250933824909e-02 1.547541302213394990e-05 1.371610497379100249e-03
1.991000000000000080e-05 1.858690797761085312e-02 2.160710455847765458e-05 1.426578142835871997e-03
2.506999999999999883e-05 2.341050104039446925e-02 2.908031724375689851e-05 1.672007475975408053e-03
2.790999999999999875e-05 2.606604784714952258e-02 3.357009132255487721e-05 1.709425557744154774e-03
3.806999999999999973e-05 3.556967988784798945e-02 4.986781576435106434e-05 1.720407281314112165e-03
5.063000000000000145e-05 4.732434580343149871e-02 7.073400252905581275e-05 1.829889149838781265e-03
6.592000000000000583e-05 6.164112392498975052e-02 9.765037643900635188e-05 1.930242980462695823e-03
8.433000000000000066e-05 7.888776783401378612e-02 1.317235490470395893e-04 2.021055815200022837e-03
1.062000000000000064e-04 9.938561165478684845e-02 1.740088341640037047e-04 2.104789529260958983e-03
1.321000000000000126e-04 1.236720406455826121e-01 2.260189757651373944e-04 2.178291718403657477e-03
1.623999999999999901e-04 1.520974545104751274e-01 2.888169908545388338e-04 2.240170365918073281e-03
1.689999999999999879e-04 1.582907717069566844e-01 3.027354772999506964e-04 2.254509350360745651e-03
1.758999999999999930e-04 1.647661861691531171e-01 3.173785841705756782e-04 2.268169273277113179e-03
1.830000000000000029e-04 1.714298948183871907e-01 3.325196584577469103e-04 2.276170334580628063e-03
1.901999999999999882e-04 1.781880600978280049e-01 3.479577791899843742e-04 2.292561569242367037e-03
1.977000000000000079e-04 1.852284385240466902e-01 3.641242634600037713e-04 2.299943765467868384e-03
2.054000000000000053e-04 1.924572004474696396e-01 3.808304060475003897e-04 2.322187632288155723e-03
2.079000000000000119e-04 1.948043378760714872e-01 3.864137987380476553e-04 2.435429768083530178e-03
2.081999999999999921e-04 1.950859988578999005e-01 3.870314100985603909e-04 1.950065624557156818e-03
2.090999999999999868e-04 1.959309855029948977e-01 3.881261957135444685e-04 6.411875526909013856e-04
2.159999999999999919e-04 2.024093317906446865e-01 3.940874488768042125e-04 1.199166870571831411e-03
2.231000000000000019e-04 2.090756740932291913e-01 4.013938420547467825e-04 9.928616047829054436e-04
2.311000000000000066e-04 2.165873044433437034e-01 4.085241694843774404e-04 9.056166966301716637e-04
2.401000000000000085e-04 2.250381721984245909e-01 4.159700687886608468e-04 8.565463878902855599e-04
2.500000000000000052e-04 2.343344406330727658e-01 4.237602369176299592e-04 8.194318812157330018e-04
2.642999999999999733e-04 2.477629128650125634e-01 4.345596643180389446e-04 7.890063723638815647e-04
3.052999999999999941e-04 2.862671839140227270e-01 4.644058706720978241e-04 7.612775562167708662e-04
3.533000000000000224e-04 3.313503829113090826e-01 4.987577676308450197e-04 7.626578558207241024e-04
4.075999999999999871e-04 3.823564017794535141e-01 5.381334366106255759e-04 7.813048116943254948e-04
4.679999999999999915e-04 4.390986251953180042e-01 5.832692638200615834e-04 8.096035963157804938e-04
5.341000000000000261e-04 5.012024644415256081e-01 6.346556894078133086e-04 8.452514814113673558e-04
6.059000000000000366e-04 5.686690698184251325e-01 6.930641302632923034e-04 8.862253587289389486e-04
7.661000000000000275e-04 7.192254882508629654e-01 8.328184776562496576e-04 9.702780530519144065e-04
1.262000000000000101e-03 1.185459127778160093e+00 1.338484980802662205e-03 1.198863597978450275e-03
1.894999999999999983e-03 1.780909071169781921e+00 2.123481960401060308e-03 1.437771491635827115e-03
2.673000000000000029e-03 2.513147344746868850e+00 3.261860252001994032e-03 1.671524566936786766e-03
3.605999999999999830e-03 3.391736073717691369e+00 4.828136641022434151e-03 1.893900408978071038e-03
4.709999999999999777e-03 4.431905410739045870e+00 6.903512974832482635e-03 2.096551352830673849e-03
7.496000000000000059e-03 7.058993649504918366e+00 1.289742191321638018e-02 2.466596387205546859e-03
1.119999999999999989e-02 1.055540362104863661e+01 2.212077014004794340e-02 2.809304433764861584e-03
1.600000000000000033e-02 1.509117352747679952e+01 3.559566804390756900e-02 3.132325055719984222e-03
2.206999999999999934e-02 2.083310616724802244e+01 5.457322122755020599e-02 3.477840948757840792e-03
2.947999999999999926e-02 2.785007348564149154e+01 8.049103664263126956e-02 3.909302116317729670e-03
4.268000000000000266e-02 4.036707211535221518e+01 1.353887601042819133e-01 4.862066536253286525e-03
6.219999999999999835e-02 5.891246509830522626e+01 2.419691225623893105e-01 6.630786177272363080e-03
7.316999999999999893e-02 6.935151695866235855e+01 3.161896974764099033e-01 7.588671314871411888e-03
7.595999999999999974e-02 7.200836722020332559e+01 3.371250777904805096e-01 8.170805199905812125e-03
7.685877551020407761e-02 7.286441677474675771e+01 3.442017873543025130e-01 8.362597980934681832e-03
7.775755102040816935e-02 7.372055003300785359e+01 3.514412277728435896e-01 8.549342013374120960e-03
7.865632653061224722e-02 7.457676788465522577e+01 3.588392612284846961e-01 8.731377472318785013e-03
7.955510204081632508e-02 7.543307115338944868e+01 3.663920398695152403e-01 8.909044532863358984e-03
8.045387755102040295e-02 7.628946060245610283e+01 3.740960059047890307e-01 9.082683370102498377e-03
8.135265306122449469e-02 7.714593693991311341e+01 3.819478917064467738e-01 9.252634159130882982e-03
8.225142857142857256e-02 7.800250082366655136e+01 3.899447199198425862e-01 9.419237075043166568e-03
8.315020408163265042e-02 7.885915286628775789e+01 3.980838035799053043e-01 9.582832292934032395e-03
8.404897959183672829e-02 7.971589363962328889e+01 4.063627462332438101e-01 9.743759987898137701e-03
8.494775510204082003e-02 8.057272367920883482e+01 4.147794420653870273e-01 9.902360335030160540e-03
8.584653061224489790e-02 8.142964348849801581e+01 4.233320760326179655e-01 1.005897350942476162e-02
8.674530612244897576e-02 8.228665354291537426e+01 4.320191239979316866e-01 1.021393968617661553e-02
8.764408163265305363e-02 8.314375429374240412e+01 4.408393528707046927e-01 1.036759904038038645e-02
8.854285714285714537e-02 8.400094617184639390e+01 4.497918207497270671e-01 1.052029174713074548e-02
8.944163265306122323e-02 8.485822959125839304e+01 4.588758770692991096e-01 1.067235798152235682e-02
9.034040816326530110e-02 8.571560495260985135e+01 4.680911627481491033e-01 1.082413791864989504e-02
9.123918367346939284e-02 8.657307264643289102e+01 4.774376103409722627e-01 1.097597173360802432e-02
9.213795918367347071e-02 8.743063305633275206e+01 4.869154441924392618e-01 1.112819960149141578e-02
9.303673469387754857e-02 8.828828656203805281e+01 4.965251805935652074e-01 1.128116169739473360e-02
9.393551020408162644e-02 8.914603354233396715e+01 5.062676279403650614e-01 1.143519819641265062e-02
9.483428571428570431e-02 9.000387437788548084e+01 5.161438868947635372e-01 1.159064927363983276e-02
9.573306122448979605e-02 9.086180945395449271e+01 5.261553505477603032e-01 1.174785510417095460e-02
9.663183673469387391e-02 9.171983916301682882e+01 5.363037045848817463e-01 1.190715586310067513e-02
9.753061224489795178e-02 9.257796390728327651e+01 5.465909274539880736e-01 1.206889172552366891e-02
9.842938775510204352e-02 9.343618410112935635e+01 5.570192905355244584e-01 1.223340286653460535e-02
9.932816326530612139e-02 9.429450017343732782e+01 5.675913583153404662e-01 1.240102946122814860e-02
1.002269387755101993e-01 9.515291256985629786e+01 5.783099885602241974e-01 1.257211168469896806e-02
1.011257142857142910e-01 9.601142175498129916e+01 5.891783324963206780e-01 1.274698971204173831e-02
1.020244897959183689e-01 9.687002821445749134e+01 6.001998349906304542e-01 1.292600371835111832e-02
1.029232653061224467e-01 9.772873245701154588e+01 6.113782347358046598e-01 1.310949387872177921e-02
1.038220408163265246e-01 9.858753501641359662e+01 6.227175644384715936e-01 1.329780036824839556e-02
1.047208163265306025e-01 9.944643645337312421e+01 6.342221510113530414e-01 1.349126336202563156e-02
1.056195918367346942e-01 1.003054373573711331e+02 6.458966157694441268e-01 1.369022303514815658e-02
1.065183673469387721e-01 1.011645383484319751e+02 6.577458746305484549e-01 1.389501956271063828e-02
1.074171428571428499e-01 1.020237400788365534e+02 6.697751383204800790e-01 1.410599311980774428e-02
1.083159183673469417e-01 1.028830432347805726e+02 6.819899125832538100e-01 1.432348388153414226e-02
1.092146938775510195e-01 1.037424485379791577e+02 6.943959983966052629e-01 1.454783202298450505e-02
1.101134693877550974e-01 1.046019567472203278e+02 7.069994921931964660e-01 1.477937771925349683e-02
1.110122448979591891e-01 1.054615686598700535e+02 7.198067860878714086e-01 1.501846114543579740e-02
1.119110204081632531e-01 1.063212851133294805e+02 7.328245681113436660e-01 1.526542247662605184e-02
1.128097959183673449e-01 1.071811069864486257e+02 7.460598224507123399e-01 1.552060188791895556e-02
1.137085714285714227e-01 1.080410352008956920e+02 7.595198296972031082e-01 1.578433955440915540e-02
1.146073469387755006e-01 1.089010707224859829e+02 7.732121671015607101e-01 1.605697565119133113e-02
1.155061224489795924e-01 1.097612145624702009e+02 7.871447088375110868e-01 1.633885035336014868e-02
1.164048979591836702e-01 1.106214677787859983e+02 8.013256262737339375e-01 1.663030383601027742e-02
1.173036734693877481e-01 1.114818314772716690e+02 8.157633882547945525e-01 1.693167627423638327e-02
1.182024489795918398e-01 1.123423068128458198e+02 8.304667613914865631e-01 1.724330784313314255e-02
1.191012244897959177e-01 1.132028949906530499e+02 8.454448103610537890e-01 1.756553871779521422e-02
1.199999999999999956e-01 1.140635972671771157e+02 8.607068982177672467e-01 1.789870907331727115e-02
1.237033461849965654e-01 1.176113100524082569e+02 9.267986406643392572e-01 1.935971279571163314e-02
1.274066923699931353e-01 1.211610803310224895e+02 9.981983449074937065e-01 2.086767814427259449e-02
1.311100385549897052e-01 1.247130051351202837e+02 1.075081713914267878e+00 2.242299491667876579e-02
1.348133847399862750e-01 1.282671810131628831e+02 1.157626995105212497e+00 2.402628891980089845e-02
1.385167309249828449e-01 1.318237041515927501e+02 1.246015852022047454e+00 2.567842206214882017e-02
1.422200771099794148e-01 1.353826705068124454e+02 1.340434240304041014e+00 2.738049219024426412e-02
1.459234232949759846e-01 1.389441759462767152e+02 1.441073287567658623e+00 2.913383267482828193e-02
1.496267694799725545e-01 1.425083163976376568e+02 1.548130176799094038e+00 3.094001175018504940e-02
1.533301156649691244e-01 1.460751880050251259e+02 1.661809032877642478e+00 3.280083160750427856e-02
1.570334618499656942e-01 1.496448872916722337e+02 1.782321811850484661e+00 3.471832724106996282e-02
1.607368080349622641e-01 1.532175113281987535e+02 1.909889192577097994e+00 3.669476504412338275e-02
1.644401542199588340e-01 1.567931579059461455e+02 2.044741470354865420e+00 3.873264114947524289e-02
1.681435004049554038e-01 1.603719257148406712e+02 2.187119452127051389e+00 4.083467950832054411e-02
1.718468465899519737e-01 1.639539145253101537e+02 2.337275352860637145e+00 4.300382969922212500e-02
1.755501927749485436e-01 1.675392253738416741e+02 2.495473692664913035e+00 4.524326445786767958e-02
1.792535389599451134e-01 1.711279607518037551e+02 2.661992194202581707e+00 4.755637691695956820e-02
1.829568851449416833e-01 1.747202247971989948e+02 2.837122679923682611e+00 4.994677754446459617e-02
1.866602313299382532e-01 1.783161234890389721e+02 3.021171968629178473e+00 5.241829076742723220e-02
1.903635775149348230e-01 1.819157648440644266e+02 3.214462770845726514e+00 5.497495126763462386e-02
1.940669236999313929e-01 1.855192591155523019e+02 3.417334582466222681e+00 5.762099993461439890e-02
1.977702698849279628e-01 1.891267189939726450e+02 3.630144576082270369e+00 6.036087946074918803e-02
2.014736160699245326e-01 1.927382598092718524e+02 3.853268489404974684e+00 6.319922956270658532e-02
2.051769622549211025e-01 1.963539997345729091e+02 4.087101510139499183e+00 6.614088181291535862e-02
2.088803084399176724e-01 1.999740599910966523e+02 4.332059156646797859e+00 6.919085406446992548e-02
2.125836546249142422e-01 2.035985650541101109e+02 4.588578153692913553e+00 7.235434445262264869e-02
2.162870008099108121e-01 2.072276428597246536e+02 4.857117302552394378e+00 7.563672495593364020e-02
2.199903469949073820e-01 2.108614250123651459e+02 5.138158344697719926e+00 7.904353450019316329e-02
2.236936931799039519e-01 2.145000469927389872e+02 5.432206818271366089e+00 8.258047158842364566e-02
2.273970393649005217e-01 2.181436483661371426e+02 5.739792906501241632e+00 8.625338644061233961e-02
2.311003855498970916e-01 2.217923729909011570e+02 6.061472277183902690e+00 9.006827262732612638e-02
2.348037317348936615e-01 2.254463692268944612e+02 6.397826912323213655e+00 9.403125818202991149e-02
2.385070779198902313e-01 2.291057901438092017e+02 6.749465926975130259e+00 9.814859617777323131e-02
2.422104241048868012e-01 2.327707937291546330e+02 7.117026376312074021e+00 1.024266547549355227e-01
2.459137702898833711e-01 2.364415430957535875e+02 7.501174049883156059e+00 1.068719065879361885e-01
2.496171164748799409e-01 2.401182066885921529e+02 7.902604252009282071e+00 1.114909177802296120e-01
2.533204626598765108e-01 2.438009584908511158e+02 8.322042567215204301e+00 1.162903361785243561e-01
2.570238088448730807e-01 2.474899782289539587e+02 8.760245609563899194e+00 1.212768790989973006e-01
2.607271550298696505e-01 2.511854515764616451e+02 9.218001754722507712e+00 1.264573204603238743e-01
2.644305012148662204e-01 2.548875703566457958e+02 9.696131853553563218e+00 1.318384773206225935e-01
2.681338473998627903e-01 2.585965327435590666e+02 1.019548992599063375e+01 1.374271958179154596e-01
2.718371935848593601e-01 2.623125434614325400e+02 1.071696383392399277e+01 1.432303365164522280e-01
2.755405397698559300e-01 2.660358139822167800e+02 1.126147593178976436e+01 1.492547591642208460e-01
2.792438859548524999e-01 2.697665627210834600e+02 1.182998369352549517e+01 1.555073068701918193e-01
2.829472321398490697e-01 2.735050152297001773e+02 1.242348031452647028e+01 1.619947897133036663e-01
2.866505783248456396e-01 2.772514043870928049e+02 1.304299528721088564e+01 1.687239677989030850e-01
2.903539245098422095e-01 2.810059705878963996e+02 1.368959494877835503e+01 1.757015337822915024e-01
2.940572706948387793e-01 2.847689619278016835e+02 1.436438299972577681e+01 1.829340948832106906e-01
2.977606168798353492e-01 2.885406343859989988e+02 1.506850099166774015e+01 1.904281544194993403e-01
3.014639630648319191e-01 2.923212520044129974e+02 1.580312878299593748e+01 1.981900928927761152e-01
3.769442903492231101e-01 3.723163198869585244e+02 4.589965389216395408e+01 5.361903568828082500e-01
4.524246176336143010e-01 4.605660508166546379e+02 9.574072276766175094e+01 5.902181894501816739e-01
5.279049449180055475e-01 5.577470908602010695e+02 1.494234843163776816e+02 5.200820091018165670e-01
6.033852722023966830e-01 6.624207672471255819e+02 1.999874143333772736e+02 4.499458287534514600e-01
6.788655994867878185e-01 7.731455703722773478e+02 2.457723045315060801e+02 3.798096484050864641e-01
7.543459267711790650e-01 8.886375621807239895e+02 2.854771324636871555e+02 3.096734680567213016e-01
8.298262540555703115e-01 1.008178004489137265e+03 3.315930321540353702e+02 4.583003367822856555e-01
9.053065813399614470e-01 1.132846666436567375e+03 4.046534115626153039e+02 7.041922787195370459e-01
9.807869086243525825e-01 1.264769490274519740e+03 4.967052381114311856e+02 6.921848247723896286e-01
1.056267235908743718e+00 1.403912611756122715e+03 5.921309365979968788e+02 6.801773708252423223e-01
1.131747563193135075e+00 1.549987637221282512e+03 6.905623545555408782e+02 6.681699168780947939e-01
1.207227890477526211e+00 1.702709676247889092e+03 7.906769063399697188e+02 6.439191893065918659e-01
1.282708217761917346e+00 1.861697758640084885e+03 8.904053978687874178e+02 6.117635783241534009e-01
1.358188545046308704e+00 2.026511723093871296e+03 9.885004830555411672e+02 5.796079673417149358e-01
1.433668872330699839e+00 2.196719193344137693e+03 1.084343361845493291e+03 5.474523563592764708e-01
1.509149199615090975e+00 2.371902075392397819e+03 1.177364525610855253e+03 5.152967453768380057e-01
1.584629526899482110e+00 2.551656837824091781e+03 1.267042067904679925e+03 4.831411343943995407e-01
1.660109854183873246e+00 2.735594655172254079e+03 1.352899884178093544e+03 4.509855234119611311e-01
1.735590181468264603e+00 2.923341441398920324e+03 1.434505799151074143e+03 4.188299124295226106e-01
1.811070508752655739e+00 3.114537794975513862e+03 1.511469652047537238e+03 3.866743014470841455e-01
1.886550836037046874e+00 3.308947677673676935e+03 1.592285592939676917e+03 4.440737591605982137e-01
1.962031163321438232e+00 3.506880801253959362e+03 1.690637484884979131e+03 5.482454925797883849e-01
2.037511490605829145e+00 3.709013315872419298e+03 1.812169443909348047e+03 6.524172259989780009e-01
2.112991817890220503e+00 3.916071946817539356e+03 1.958272859816705022e+03 7.565889594181681721e-01
