# density  energy_density  pressure   sound_speed_squared  [All in nuclear units]
2.720000000000000022e-14 2.529924618736292620e-11 1.061056609100270887e-19 3.766610435412189122e-08
1.269999999999999890e-13 1.181251617980081254e-10 4.870113551826584858e-18 6.497781477172163475e-08
6.929999999999999754e-13 6.445728594625782745e-10 1.018299070687946017e-16 3.033770597342807186e-07
6.295000000000000137e-12 5.855111460395753757e-09 5.487150723824490656e-15 1.763710043904196507e-06
1.581000000000000150e-11 1.470523320212576141e-08 2.904239460150760759e-14 3.559434472327477622e-06
3.971999999999999958e-11 3.694456170323160790e-08 1.439340266754906811e-13 6.772854871245677111e-06
9.975999999999999982e-11 9.278976412613005154e-08 6.812143616221268841e-13 1.246890511177539320e-05
2.505999999999999928e-10 2.330928829758143313e-07 3.107749196951638608e-12 2.212095130576091967e-05
6.294000000000000186e-10 5.854398883216247602e-07 1.363250409771533549e-11 3.761981047239428883e-05
1.581000000000000021e-09 1.470619631082054101e-06 5.726014178088476303e-11 6.095350986710739404e-05
3.971999999999999932e-09 3.694861084648016046e-06 2.210019573374265380e-10 8.628023653304385055e-05
5.000000000000000105e-09 4.651201787816927976e-06 3.071485916280120014e-10 9.387863480799757518e-05
9.975999999999999465e-09 9.280587964640925786e-06 8.385361004129998845e-10 1.356922228656245837e-04
1.989999999999999952e-08 1.851419242998081003e-05 2.287763168863418088e-09 1.782101978513718314e-04
3.972999999999999908e-08 3.696699295748789187e-05 6.061583099087538954e-09 2.308134738384234820e-04
7.925999999999999637e-08 7.375765469301719828e-05 1.575347858094044765e-08 2.960532096713864875e-04
1.580999999999999930e-07 1.471491184379128891e-04 3.910429618672550719e-08 3.402859755131850544e-04
1.991000000000000027e-07 1.853209783927820692e-04 5.252045687899177454e-08 3.626488188833278743e-04
3.155999999999999938e-07 2.938002528823880299e-04 9.730770378831954314e-08 4.630767356912104081e-04
5.000999999999999849e-07 4.656344063839075714e-04 1.837494945860225819e-07 5.430301232045120323e-04
6.295999999999999732e-07 5.862651417037388971e-04 2.503103884558263872e-07 5.605192962670089638e-04
9.666999999999999941e-07 9.003386739730535665e-04 4.324450868778576936e-07 5.993081670211623108e-04
1.531999999999999901e-06 1.427170885631398036e-03 7.780217275717420968e-07 7.125938556504039095e-04
2.506999999999999883e-06 2.336134972129507662e-03 1.471005394641589826e-06 8.121876172121876309e-04
3.974000000000000407e-06 3.704315759716615697e-03 2.695705763844323844e-06 9.780674166779417152e-04
4.830000000000000343e-06 4.502887798316278223e-03 3.503988717694660908e-06 1.046253037768318664e-03
6.080999999999999885e-06 5.670217999231269741e-03 4.731126407333307547e-06 1.056224360839501646e-03
7.930000000000000308e-06 7.396012414119570652e-03 6.599662989063778187e-06 1.109203753630785610e-03
9.982000000000000313e-06 9.311815711689977113e-03 8.879881089227186733e-06 1.271216815433141075e-03
1.256999999999999993e-05 1.172874412604260098e-02 1.207676739913533738e-05 1.374195438212825332e-03
1.521999999999999997e-05 1.420427250933824909e-02 1.547541302213394990e-05 1.371610497379100249e-03
1.991000000000000080e-05 1.858690797761085312e-02 2.160710455847765458e-05 1.426578142835871997e-03
2.506999999999999883e-05 2.341050104039446925e-02 2.908031724375689851e-05 1.672007475975408053e-03
2.790999999999999875e-05 2.606604784714952258e-02 3.357009132255487721e-05 1.709425557744154774e-03
3.806999999999999973e-05 3.556967988784798945e-02 4.986781576435106434e-05 1.720407281314112165e-03
5.063000000000000145e-05 4.732434580343149871e-02 7.073400252905581275e-05 1.829889149838781265e-03
6.592000000000000583e-05 6.164112392498975052e-02 9.765037643900635188e-05 1.930242980462695823e-03
8.433000000000000066e-05 7.888776783401378612e-02 1.317235490470395893e-04 2.021055815200022837e-03
1.062000000000000064e-04 9.938561165478684845e-02 1.740088341640037047e-04 2.104789529260958983e-03
1.321000000000000126e-04 1.236720406455826121e-01 2.260189757651373944e-04 2.178291718403657477e-03
1.623999999999999901e-04 1.520974545104751274e-01 2.888169908545388338e-04 2.240170365918073281e-03
1.689999999999999879e-04 1.582907717069566844e-01 3.027354772999506964e-04 2.254509350360745651e-03
1.758999999999999930e-04 1.647661861691531171e-01 3.173785841705756782e-04 2.268169273277113179e-03
1.830000000000000029e-04 1.714298948183871907e-01 3.325196584577469103e-04 2.276170334580628063e-03
1.901999999999999882e-04 1.781880600978280049e-01 3.479577791899843742e-04 2.292561569242367037e-03
1.977000000000000079e-04 1.852284385240466902e-01 3.641242634600037713e-04 2.299943765467868384e-03
2.054000000000000053e-04 1.924572004474696396e-01 3.808304060475003897e-04 2.322187632288155723e-03
2.079000000000000119e-04 1.948043378760714872e-01 3.864137987380476553e-04 2.435429768083530178e-03
2.081999999999999921e-04 1.950859988578999005e-01 3.870314100985603909e-04 1.950065624557156818e-03
2.090999999999999868e-04 1.959309855029948977e-01 3.881261957135444685e-04 6.411875526909013856e-04
2.159999999999999919e-04 2.024093317906446865e-01 3.940874488768042125e-04 1.199166870571831411e-03
2.231000000000000019e-04 2.090756740932291913e-01 4.013938420547467825e-04 9.928616047829054436e-04
2.311000000000000066e-04 2.165873044433437034e-01 4.085241694843774404e-04 9.056166966301716637e-04
2.401000000000000085e-04 2.250381721984245909e-01 4.159700687886608468e-04 8.565463878902855599e-04
2.500000000000000052e-04 2.343344406330727658e-01 4.237602369176299592e-04 8.194318812157330018e-04
2.642999999999999733e-04 2.477629128650125634e-01 4.345596643180389446e-04 7.890063723638815647e-04
3.052999999999999941e-04 2.862671839140227270e-01 4.644058706720978241e-04 7.612775562167708662e-04
3.533000000000000224e-04 3.313503829113090826e-01 4.987577676308450197e-04 7.626578558207241024e-04
4.075999999999999871e-04 3.823564017794535141e-01 5.381334366106255759e-04 7.813048116943254948e-04
4.679999999999999915e-04 4.390986251953180042e-01 5.832692638200615834e-04 8.096035963157804938e-04
5.341000000000000261e-04 5.012024644415256081e-01 6.346556894078133086e-04 8.452514814113673558e-04
6.059000000000000366e-04 5.686690698184251325e-01 6.930641302632923034e-04 8.862253587289389486e-04
7.661000000000000275e-04 7.192254882508629654e-01 8.328184776562496576e-04 9.702780530519144065e-04
1.262000000000000101e-03 1.185459127778160093e+00 1.338484980802662205e-03 1.198863597978450275e-03
1.894999999999999983e-03 1.780909071169781921e+00 2.123481960401060308e-03 1.437771491635827115e-03
2.673000000000000029e-03 2.513147344746868850e+00 3.261860252001994032e-03 1.671524566936786766e-03
3.605999999999999830e-03 3.391736073717691369e+00 4.828136641022434151e-03 1.893900408978071038e-03
4.709999999999999777e-03 4.431905410739045870e+00 6.903512974832482635e-03 2.096551352830673849e-03
7.496000000000000059e-03 7.058993649504918366e+00 1.289742191321638018e-02 2.466596387205546859e-03
1.119999999999999989e-02 1.055540362104863661e+01 2.212077014004794340e-02 2.809304433764861584e-03
1.600000000000000033e-02 1.509117352747679952e+01 3.559566804390756900e-02 3.132325055719984222e-03
2.206999999999999934e-02 2.083310616724802244e+01 5.457322122755020599e-02 3.477840948757840792e-03
2.947999999999999926e-02 2.785007348564149154e+01 8.049103664263126956e-02 3.909302116317729670e-03
4.268000000000000266e-02 4.036707211535221518e+01 1.353887601042819133e-01 4.862066536253286525e-03
6.219999999999999835e-02 5.891246509830522626e+01 2.419691225623893105e-01 6.630786177272363080e-03
7.316999999999999893e-02 6.935151695866235855e+01 3.161896974764099033e-01 7.588671314871411888e-03
7.595999999999999974e-02 7.200836722020332559e+01 3.371250777904805096e-01 8.170805199905812125e-03
7.685877551020407761e-02 7.286441676649870658e+01 3.442003758511844036e-01 8.359300589501230880e-03
7.775755102040816935e-02 7.372054997830879586e+01 3.514346712218859303e-01 8.540621326023284735e-03
7.865632653061224722e-02 7.457676769239370174e+01 3.588220555358688224e-01 8.715226470646902923e-03
7.955510204081632508e-02 7.543307066109694858e+01 3.663570114661504062e-01 8.883575084547016415e-03
8.045387755102040295e-02 7.628945955962581138e+01 3.740344128581319372e-01 9.046126228898549240e-03
8.135265306122449469e-02 7.714593499300826807e+01 3.818495248736691883e-01 9.203338964876434103e-03
8.225142857142857256e-02 7.800249750274292637e+01 3.897980041450938016e-01 9.355672353655596768e-03
8.315020408163265042e-02 7.885914757316132295e+01 3.978758989378763378e-01 9.503585456410966470e-03
8.404897959183672829e-02 7.971588563751620882e+01 4.060796493207631808e-01 9.647537334317472443e-03
8.494775510204082003e-02 8.057271208381099825e+01 4.144060873423582314e-01 9.787987048550043923e-03
8.584653061224489790e-02 8.142962726038526000e+01 4.228524372132436704e-01 9.925393660283608407e-03
8.674530612244897576e-02 8.228663148126729254e+01 4.314163154928550847e-01 1.006021623069309166e-02
8.764408163265305363e-02 8.314372503130741165e+01 4.400957312804307242e-01 1.019291382095342639e-02
8.854285714285714537e-02 8.400090817110218211e+01 4.488890864094627342e-01 1.032394549223954183e-02
8.944163265306122323e-02 8.485818114172094795e+01 4.577951756451691945e-01 1.045377030572636028e-02
9.034040816326530110e-02 8.571554416924450948e+01 4.668131868846003840e-01 1.058284732258881616e-02
9.123918367346939284e-02 8.657299746912461558e+01 4.759427013590708522e-01 1.071163560400183873e-02
9.213795918367347071e-02 8.743054125037436108e+01 4.851836938386918652e-01 1.084059421114035200e-02
9.303673469387754857e-02 8.828817571959635302e+01 4.945365328388527937e-01 1.097018220517928522e-02
9.393551020408162644e-02 8.914590108485781172e+01 5.040019808285647329e-01 1.110085864729356935e-02
9.483428571428570431e-02 9.000371755941904439e+01 5.135811944406496465e-01 1.123308259865813362e-02
9.573306122448979605e-02 9.086162536532265221e+01 5.232757246838176668e-01 1.136731312044790380e-02
9.663183673469387391e-02 9.171962473684976658e+01 5.330875171567308612e-01 1.150400927383780914e-02
9.753061224489795178e-02 9.257771592384996495e+01 5.430189122642100630e-01 1.164363012000278058e-02
9.842938775510204352e-02 9.343589919495036611e+01 5.530726454357877131e-01 1.178663472011774217e-02
9.932816326530612139e-02 9.429417484064907740e+01 5.632518473468610676e-01 1.193348213535762835e-02
1.002269387755101993e-01 9.515254317629953107e+01 5.735600441427448626e-01 1.208463142689735967e-02
1.011257142857142910e-01 9.601100454498886450e+01 5.840011576659642767e-01 1.224054165591187578e-02
1.020244897959183689e-01 9.686955932031676753e+01 5.945795056871691076e-01 1.240167188357609376e-02
1.029232653061224467e-01 9.772820790907778132e+01 6.052998021400932682e-01 1.256848117106494807e-02
1.038220408163265246e-01 9.858695075385267614e+01 6.161671573610107977e-01 1.274142857955336619e-02
1.047208163265306025e-01 9.944578833551142338e+01 6.271870783331837673e-01 1.292097317021627736e-02
1.056195918367346942e-01 1.003047211756329062e+02 6.383654689368225554e-01 1.310757400422861430e-02
1.065183673469387721e-01 1.011637498388443248e+02 6.497086302051129358e-01 1.330169014276529581e-02
1.074171428571428499e-01 1.020228749350835500e+02 6.612232605868952895e-01 1.350378064700125808e-02
1.083159183673469417e-01 1.028820971217881635e+02 6.729164562166042307e-01 1.371430457811142686e-02
1.092146938775510195e-01 1.037414171060143815e+02 6.847957111921063600e-01 1.393372099727072967e-02
1.101134693877550974e-01 1.046008356464880080e+02 6.968689178611019441e-01 1.416248896565409400e-02
1.110122448979591891e-01 1.054603535555908707e+02 7.091443671167718676e-01 1.440106754443646123e-02
1.119110204081632531e-01 1.063199717012861640e+02 7.216307487033816193e-01 1.464991579479273803e-02
1.128097959183673449e-01 1.071796910089831698e+02 7.343371515325757271e-01 1.490949277789787100e-02
1.137085714285714227e-01 1.080395124633459858e+02 7.472730640111060474e-01 1.518025755492678069e-02
1.146073469387755006e-01 1.088994371100476002e+02 7.604483743807752827e-01 1.546266918705439461e-02
1.155061224489795924e-01 1.097594660574712151e+02 7.738733710713775471e-01 1.575718673545564719e-02
1.164048979591836702e-01 1.106196004783618605e+02 7.875587430674479972e-01 1.606426926130546246e-02
1.173036734693877481e-01 1.114798416114299187e+02 8.015155802896475334e-01 1.638437582577877139e-02
1.182024489795918398e-01 1.123401907629078949e+02 8.157553739916222346e-01 1.671796549005050841e-02
1.191012244897959177e-01 1.132006493080635039e+02 8.302900171731966150e-01 1.706549731529558370e-02
1.199999999999999956e-01 1.140612186926701526e+02 8.451318050107761159e-01 1.742743036268893861e-02
1.216865349061364010e-01 1.156763659463716181e+02 8.738542524335481954e-01 1.813884148298643834e-02
1.233730698122727926e-01 1.172919193579813282e+02 9.037460368275197498e-01 1.886608415946233394e-02
1.250596047184091841e-01 1.189078895400815554e+02 9.348335107510472586e-01 1.960913467144130909e-02
1.267461396245455896e-01 1.205242871744418380e+02 9.671430324371635967e-01 2.036796861580945917e-02
1.284326745306819950e-01 1.221411230093331000e+02 1.000700965827980848e+00 2.114256092705747020e-02
1.301192094368184005e-01 1.237584078569831689e+02 1.035533680640098098e+00 2.193288589634835584e-02
1.318057443429548059e-01 1.253761525911642138e+02 1.071667552459222961e+00 2.273891718964706626e-02
1.334922792490911836e-01 1.269943681449067014e+02 1.109128962862292234e+00 2.356062786494598355e-02
1.351788141552275890e-01 1.286130655083294130e+02 1.147944299565444304e+00 2.439799038861924924e-02
1.368653490613639945e-01 1.302322557265804051e+02 1.188139956596246272e+00 2.525097665093242044e-02
1.385518839675003999e-01 1.318519498978810134e+02 1.229742334488650446e+00 2.611955798073242394e-02
1.402384188736368054e-01 1.334721591716686078e+02 1.272777840499181412e+00 2.700370515933968665e-02
1.419249537797731830e-01 1.350928947468306092e+02 1.317272888842912382e+00 2.790338843366263824e-02
1.436114886859095885e-01 1.367141678700255625e+02 1.363253900947825725e+00 2.881857752855021895e-02
1.452980235920459939e-01 1.383359898340866039e+02 1.410747305726171907e+00 2.974924165839874443e-02
1.469845584981823994e-01 1.399583719765016099e+02 1.459779539861497000e+00 3.069534953802484020e-02
1.486710934043187771e-01 1.415813256779670155e+02 1.510377048110007836e+00 3.165686939281742857e-02
1.503576283104551825e-01 1.432048623610107256e+02 1.562566283614987617e+00 3.263376896817671291e-02
1.520441632165915880e-01 1.448289934886796857e+02 1.616373708232973216e+00 3.362601553824907247e-02
1.537306981227279934e-01 1.464537305632907476e+02 1.671825792870448080e+00 3.463357591396486190e-02
1.554172330288643988e-01 1.480790851252388620e+02 1.728949017829793711e+00 3.565641645038413604e-02
1.571037679350008043e-01 1.497050687518609777e+02 1.787769873163267409e+00 3.669450305335499041e-02
1.587903028411371820e-01 1.513316930563534015e+02 1.848314859033780344e+00 3.774780118548748398e-02
1.604768377472735874e-01 1.529589696867383566e+02 1.910610486081258941e+00 3.881627587144603070e-02
1.621633726534099929e-01 1.545869103248774934e+02 1.974683275793362558e+00 3.989989170256094675e-02
1.638499075595463983e-01 1.562155266855312163e+02 2.040559760879363083e+00 4.099861284076021517e-02
1.655364424656827760e-01 1.578448305154600462e+02 2.108266485645960309e+00 4.211240302182137074e-02
1.672229773718191814e-01 1.594748335925665970e+02 2.177830006373830951e+00 4.324122555794214506e-02
1.689095122779555869e-01 1.611055477250756951e+02 2.249276891693684277e+00 4.438504333962890042e-02
1.705960471840919923e-01 1.627369847507517591e+02 2.322633722960622205e+00 4.554381883690024335e-02
1.722825820902283978e-01 1.643691565361499158e+02 2.397927094625569744e+00 4.671751409980360453e-02
1.739691169963648032e-01 1.660020749759000012e+02 2.475183614602547877e+00 4.790609075824129454e-02
1.756556519025011809e-01 1.676357519920233017e+02 2.554429904630552084e+00 4.910951002110264252e-02
1.773421868086375863e-01 1.692701995332775198e+02 2.635692600628795734e+00 5.032773267469808215e-02
1.790287217147739918e-01 1.709054295745298191e+02 2.718998353044045579e+00 5.156071908049084107e-02
1.807152566209103972e-01 1.725414541161584907e+02 2.804373827188802348e+00 5.280842917212122400e-02
1.824017915270467749e-01 1.741782851834779819e+02 2.891845703569031478e+00 5.407082245171877799e-02
1.840883264331831803e-01 1.758159348261900163e+02 2.981440678200165006e+00 5.534785798549711477e-02
1.857748613393195858e-01 1.774544151178555467e+02 3.073185462910044574e+00 5.663949439862472901e-02
1.874613962454559912e-01 1.790937381553913497e+02 3.167106785627515464e+00 5.794568986936743382e-02
1.891479311515923967e-01 1.807339160585841285e+02 3.263231390655309205e+00 5.926640212249507933e-02
1.908344660577288021e-01 1.823749609696273808e+02 3.361586038925873599e+00 6.060158842194707934e-02
1.925210009638652076e-01 1.840168850526740698e+02 3.462197508238777033e+00 6.195120556274995305e-02
1.942075358700015852e-01 1.856597004934088488e+02 3.565092593478294436e+00 6.331520986218029667e-02
1.958940707761379907e-01 1.873034194986364298e+02 3.670298106809779526e+00 6.469355715016686381e-02
1.975806056822743684e-01 1.889480542958852709e+02 3.777840877853372081e+00 6.608620275892405915e-02
1.992671405884107738e-01 1.905936171330268678e+02 3.887747753833633801e+00 6.749310151181117656e-02
2.009536754945471793e-01 1.922401202779081189e+02 4.000045599703595300e+00 6.891420771140921442e-02
2.026402104006835847e-01 1.938875760179983274e+02 4.114761298241773169e+00 7.034947512680886361e-02
2.801373489639349401e-01 2.731141071650714593e+02 3.371962269381400290e+01 6.347912600264322691e-01
3.576344875271862955e-01 3.636334663982757434e+02 6.945757223633842159e+01 1.874655032584122694e-01
4.351316260904376509e-01 4.591058145348393396e+02 8.512887296833260109e+01 1.418502168432469457e-01
5.126287646536890064e-01 5.577767998612180236e+02 1.079556894008690904e+02 3.170056035107909898e-01
5.901259032169403618e-01 6.611635478533989954e+02 1.499879777130690286e+02 4.896624551373667811e-01
6.676230417801917172e-01 7.712248148281196336e+02 2.096756070020578591e+02 5.903191797030686860e-01
7.451201803434430726e-01 8.890726280103749559e+02 2.854884893215815396e+02 6.909759042687704245e-01
8.226173189066944280e-01 1.015656457788610965e+03 3.773849315572457499e+02 7.572798337671384772e-01
9.001144574699457834e-01 1.151512059614216469e+03 4.770409437288063828e+02 7.126982131860206682e-01
9.776115960331971388e-01 1.295960621504100118e+03 5.765938359811284499e+02 6.681165926049029702e-01
1.055108734596448494e+00 1.448261180849631728e+03 6.747980137225117687e+02 6.235349720237852722e-01
1.132605873159699961e+00 1.607694352257895162e+03 7.705197286531217742e+02 5.789533514426674632e-01
1.210103011722951205e+00 1.773565498567486429e+03 8.627350891202409002e+02 5.343717308615497652e-01
1.287600150286202449e+00 1.945206915944018874e+03 9.505268309037323888e+02 4.897901102804320672e-01
1.365097288849454138e+00 2.121979268462241635e+03 1.033080230933572921e+03 4.452084896993140917e-01
1.442594427412705382e+00 2.303272445679348493e+03 1.109678443750861561e+03 4.006268691181964492e-01
1.520091565975956627e+00 2.488505973544203698e+03 1.179697468181462682e+03 3.560452485370787512e-01
1.597588704539207871e+00 2.677129078154586750e+03 1.242600899539079137e+03 3.114636279559610532e-01
1.675085843102459560e+00 2.868620479377152151e+03 1.297934584338947388e+03 2.668820073748431332e-01
1.752582981665710804e+00 3.062487974621596550e+03 1.345321265858356810e+03 2.223003867937254352e-01
1.830080120228962048e+00 3.258267860425492017e+03 1.384455287179730021e+03 1.777187662126077372e-01
1.907577258792213293e+00 3.455524229821288827e+03 1.415097401723023040e+03 1.331371456314900392e-01
1.985074397355464981e+00 3.653848175938490385e+03 1.437069728411047436e+03 8.855552505037211919e-02
2.062571535918716226e+00 3.852856926391061279e+03 1.450250878585754435e+03 4.397390446925442120e-02
