# density  energy_density  pressure   sound_speed_squared  [All in nuclear units]
2.720000000000000022e-14 2.529924618736292620e-11 1.061056609100270887e-19 3.766610435412189122e-08
1.269999999999999890e-13 1.181251617980081254e-10 4.870113551826584858e-18 6.497781477172163475e-08
6.929999999999999754e-13 6.445728594625782745e-10 1.018299070687946017e-16 3.033770597342807186e-07
6.295000000000000137e-12 5.855111460395753757e-09 5.487150723824490656e-15 1.763710043904196507e-06
1.581000000000000150e-11 1.470523320212576141e-08 2.904239460150760759e-14 3.559434472327477622e-06
3.971999999999999958e-11 3.694456170323160790e-08 1.439340266754906811e-13 6.772854871245677111e-06
9.975999999999999982e-11 9.278976412613005154e-08 6.812143616221268841e-13 1.246890511177539320e-05
2.505999999999999928e-10 2.330928829758143313e-07 3.107749196951638608e-12 2.212095130576091967e-05
6.294000000000000186e-10 5.854398883216247602e-07 1.363250409771533549e-11 3.761981047239428883e-05
1.581000000000000021e-09 1.470619631082054101e-06 5.726014178088476303e-11 6.095350986710739404e-05
3.971999999999999932e-09 3.694861084648016046e-06 2.210019573374265380e-10 8.628023653304385055e-05
5.000000000000000105e-09 4.651201787816927976e-06 3.071485916280120014e-10 9.387863480799757518e-05
9.975999999999999465e-09 9.280587964640925786e-06 8.385361004129998845e-10 1.356922228656245837e-04
1.989999999999999952e-08 1.851419242998081003e-05 2.287763168863418088e-09 1.782101978513718314e-04
3.972999999999999908e-08 3.696699295748789187e-05 6.061583099087538954e-09 2.308134738384234820e-04
7.925999999999999637e-08 7.375765469301719828e-05 1.575347858094044765e-08 2.960532096713864875e-04
1.580999999999999930e-07 1.471491184379128891e-04 3.910429618672550719e-08 3.402859755131850544e-04
1.991000000000000027e-07 1.853209783927820692e-04 5.252045687899177454e-08 3.626488188833278743e-04
3.155999999999999938e-07 2.938002528823880299e-04 9.730770378831954314e-08 4.630767356912104081e-04
5.000999999999999849e-07 4.656344063839075714e-04 1.837494945860225819e-07 5.430301232045120323e-04
6.295999999999999732e-07 5.862651417037388971e-04 2.503103884558263872e-07 5.605192962670089638e-04
9.666999999999999941e-07 9.003386739730535665e-04 4.324450868778576936e-07 5.993081670211623108e-04
1.531999999999999901e-06 1.427170885631398036e-03 7.780217275717420968e-07 7.125938556504039095e-04
2.506999999999999883e-06 2.336134972129507662e-03 1.471005394641589826e-06 8.121876172121876309e-04
3.974000000000000407e-06 3.704315759716615697e-03 2.695705763844323844e-06 9.780674166779417152e-04
4.830000000000000343e-06 4.502887798316278223e-03 3.503988717694660908e-06 1.046253037768318664e-03
6.080999999999999885e-06 5.670217999231269741e-03 4.731126407333307547e-06 1.056224360839501646e-03
7.930000000000000308e-06 7.396012414119570652e-03 6.599662989063778187e-06 1.109203753630785610e-03
9.982000000000000313e-06 9.311815711689977113e-03 8.879881089227186733e-06 1.271216815433141075e-03
1.256999999999999993e-05 1.172874412604260098e-02 1.207676739913533738e-05 1.374195438212825332e-03
1.521999999999999997e-05 1.420427250933824909e-02 1.547541302213394990e-05 1.371610497379100249e-03
1.991000000000000080e-05 1.858690797761085312e-02 2.160710455847765458e-05 1.426578142835871997e-03
2.506999999999999883e-05 2.341050104039446925e-02 2.908031724375689851e-05 1.672007475975408053e-03
2.790999999999999875e-05 2.606604784714952258e-02 3.357009132255487721e-05 1.709425557744154774e-03
3.806999999999999973e-05 3.556967988784798945e-02 4.986781576435106434e-05 1.720407281314112165e-03
5.063000000000000145e-05 4.732434580343149871e-02 7.073400252905581275e-05 1.829889149838781265e-03
6.592000000000000583e-05 6.164112392498975052e-02 9.765037643900635188e-05 1.930242980462695823e-03
8.433000000000000066e-05 7.888776783401378612e-02 1.317235490470395893e-04 2.021055815200022837e-03
1.062000000000000064e-04 9.938561165478684845e-02 1.740088341640037047e-04 2.104789529260958983e-03
1.321000000000000126e-04 1.236720406455826121e-01 2.260189757651373944e-04 2.178291718403657477e-03
1.623999999999999901e-04 1.520974545104751274e-01 2.888169908545388338e-04 2.240170365918073281e-03
1.689999999999999879e-04 1.582907717069566844e-01 3.027354772999506964e-04 2.254509350360745651e-03
1.758999999999999930e-04 1.647661861691531171e-01 3.173785841705756782e-04 2.268169273277113179e-03
1.830000000000000029e-04 1.714298948183871907e-01 3.325196584577469103e-04 2.276170334580628063e-03
1.901999999999999882e-04 1.781880600978280049e-01 3.479577791899843742e-04 2.292561569242367037e-03
1.977000000000000079e-04 1.852284385240466902e-01 3.641242634600037713e-04 2.299943765467868384e-03
2.054000000000000053e-04 1.924572004474696396e-01 3.808304060475003897e-04 2.322187632288155723e-03
2.079000000000000119e-04 1.948043378760714872e-01 3.864137987380476553e-04 2.435429768083530178e-03
2.081999999999999921e-04 1.950859988578999005e-01 3.870314100985603909e-04 1.950065624557156818e-03
2.090999999999999868e-04 1.959309855029948977e-01 3.881261957135444685e-04 6.411875526909013856e-04
2.159999999999999919e-04 2.024093317906446865e-01 3.940874488768042125e-04 1.199166870571831411e-03
2.231000000000000019e-04 2.090756740932291913e-01 4.013938420547467825e-04 9.928616047829054436e-04
2.311000000000000066e-04 2.165873044433437034e-01 4.085241694843774404e-04 9.056166966301716637e-04
2.401000000000000085e-04 2.250381721984245909e-01 4.159700687886608468e-04 8.565463878902855599e-04
2.500000000000000052e-04 2.343344406330727658e-01 4.237602369176299592e-04 8.194318812157330018e-04
2.642999999999999733e-04 2.477629128650125634e-01 4.345596643180389446e-04 7.890063723638815647e-04
3.052999999999999941e-04 2.862671839140227270e-01 4.644058706720978241e-04 7.612775562167708662e-04
3.533000000000000224e-04 3.313503829113090826e-01 4.987577676308450197e-04 7.626578558207241024e-04
4.075999999999999871e-04 3.823564017794535141e-01 5.381334366106255759e-04 7.813048116943254948e-04
4.679999999999999915e-04 4.390986251953180042e-01 5.832692638200615834e-04 8.096035963157804938e-04
5.341000000000000261e-04 5.012024644415256081e-01 6.346556894078133086e-04 8.452514814113673558e-04
6.059000000000000366e-04 5.686690698184251325e-01 6.930641302632923034e-04 8.862253587289389486e-04
7.661000000000000275e-04 7.192254882508629654e-01 8.328184776562496576e-04 9.702780530519144065e-04
1.262000000000000101e-03 1.185459127778160093e+00 1.338484980802662205e-03 1.198863597978450275e-03
1.894999999999999983e-03 1.780909071169781921e+00 2.123481960401060308e-03 1.437771491635827115e-03
2.673000000000000029e-03 2.513147344746868850e+00 3.261860252001994032e-03 1.671524566936786766e-03
3.605999999999999830e-03 3.391736073717691369e+00 4.828136641022434151e-03 1.893900408978071038e-03
4.709999999999999777e-03 4.431905410739045870e+00 6.903512974832482635e-03 2.096551352830673849e-03
7.496000000000000059e-03 7.058993649504918366e+00 1.289742191321638018e-02 2.466596387205546859e-03
1.119999999999999989e-02 1.055540362104863661e+01 2.212077014004794340e-02 2.809304433764861584e-03
1.600000000000000033e-02 1.509117352747679952e+01 3.559566804390756900e-02 3.132325055719984222e-03
2.206999999999999934e-02 2.083310616724802244e+01 5.457322122755020599e-02 3.477840948757840792e-03
2.947999999999999926e-02 2.785007348564149154e+01 8.049103664263126956e-02 3.909302116317729670e-03
4.268000000000000266e-02 4.036707211535221518e+01 1.353887601042819133e-01 4.862066536253286525e-03
6.219999999999999835e-02 5.891246509830522626e+01 2.419691225623893105e-01 6.630786177272363080e-03
7.316999999999999893e-02 6.935151695866235855e+01 3.161896974764099033e-01 7.588671314871411888e-03
7.595999999999999974e-02 7.200836722020332559e+01 3.371250777904805096e-01 8.170805199905812125e-03
7.685877551020407761e-02 7.286441673540302588e+01 3.441950544432717529e-01 8.346869326500036892e-03
7.775755102040816935e-02 7.372054977198007464e+01 3.514099337748811669e-01 8.507699548021390931e-03
7.865632653061224722e-02 7.457676696666516136e+01 3.587570727953426908e-01 8.654152939613083545e-03
7.955510204081632508e-02 7.543306880130799641e+01 3.662245576371149225e-01 8.787086576418346590e-03
8.045387755102040295e-02 7.628945561636641060e+01 3.738012038319031283e-01 8.907357533580403247e-03
8.135265306122449469e-02 7.714592762379659519e+01 3.814765566142704900e-01 9.015822886242469761e-03
8.225142857142857256e-02 7.800248491937672668e+01 3.892408912470098348e-01 9.113339709547764109e-03
8.315020408163265042e-02 7.885912749449580872e+01 3.970852133637880477e-01 9.200765078639516412e-03
8.404897959183672829e-02 7.971585524743612439e+01 4.050012593250720827e-01 9.278956068660939444e-03
8.494775510204082003e-02 8.057266799417747904e+01 4.129814965838164431e-01 9.348769754755265060e-03
8.584653061224489790e-02 8.142956547874713635e+01 4.210191240578219363e-01 9.411063212065706035e-03
8.674530612244897576e-02 8.228654738314138228e+01 4.291080725060851808e-01 9.466693515735485551e-03
8.764408163265305363e-02 8.314361333683841337e+01 4.372430049068309899e-01 9.516517740907830258e-03
8.854285714285714537e-02 8.400076292592623872e+01 4.454193168352779675e-01 9.561392962725956401e-03
8.944163265306122323e-02 8.485799570186240715e+01 4.536331368395145058e-01 9.602176256333087162e-03
9.034040816326530110e-02 8.571531118988612263e+01 4.618813268131747862e-01 9.639724696872445722e-03
9.123918367346939284e-02 8.657270889709937478e+01 4.701614823638892715e-01 9.674895359487248325e-03
9.213795918367347071e-02 8.743018832023248876e+01 4.784719331767595119e-01 9.708545319320725092e-03
9.303673469387754857e-02 8.828774895311103421e+01 4.868117433723613829e-01 9.741531651516087062e-03
9.393551020408162644e-02 8.914539029383671220e+01 4.951807118590159651e-01 9.774711431216569560e-03
9.483428571428570431e-02 9.000311185169738337e+01 5.035793726792963110e-01 9.808941733565378421e-03
9.573306122448979605e-02 9.086091315381817424e+01 5.120089953509466829e-01 9.845079633705747235e-03
9.663183673469387391e-02 9.171879375156571257e+01 5.204715852025892930e-01 9.883982206780888777e-03
9.753061224489795178e-02 9.257675322671761364e+01 5.289698837047827062e-01 9.926506527934033167e-03
9.842938775510204352e-02 9.343479119740712235e+01 5.375073687971680947e-01 9.973509672308394913e-03
9.932816326530612139e-02 9.429290732385386775e+01 5.460882552126086198e-01 1.002584871504720067e-02
1.002269387755101993e-01 9.515110131388989601e+01 5.547174947993835925e-01 1.008438073129367014e-02
1.011257142857142910e-01 9.600937292829051728e+01 5.634007768426437801e-01 1.014996279619102479e-02
1.020244897959183689e-01 9.686772198591837935e+01 5.721445283864762255e-01 1.022345198488248084e-02
1.029232653061224467e-01 9.772614836868892496e+01 5.809559145580592832e-01 1.030570537251127017e-02
1.038220408163265246e-01 9.858465202636583058e+01 5.898428388955104795e-01 1.039758003422060727e-02
1.047208163265306025e-01 9.944323298119232390e+01 5.988139436811493743e-01 1.049993304515371359e-02
1.056195918367346942e-01 1.003018913323671626e+02 6.078786102820100679e-01 1.061362148045381232e-02
1.065183673469387721e-01 1.011606272603707737e+02 6.170469594995409146e-01 1.073950241526413010e-02
1.074171428571428499e-01 1.020194410311484603e+02 6.263298519305343648e-01 1.087843292472787972e-02
1.083159183673469417e-01 1.028783330001564735e+02 6.357388883414180070e-01 1.103127008398828782e-02
1.092146938775510195e-01 1.037373036162774866e+02 6.452864100581344742e-01 1.119887096818857411e-02
1.101134693877550974e-01 1.045963534256098768e+02 6.549854993739221420e-01 1.138209265247195831e-02
1.110122448979591891e-01 1.054554830751365557e+02 6.648499799773877061e-01 1.158179221198167054e-02
1.119110204081632531e-01 1.063146933162795449e+02 6.748944174033417731e-01 1.179882672186091837e-02
1.128097959183673449e-01 1.071739850083425836e+02 6.851341195089450942e-01 1.203405325725293712e-02
1.137085714285714227e-01 1.080333591218494007e+02 6.955851369777759086e-01 1.228832889330093957e-02
1.146073469387755006e-01 1.088928167417792423e+02 7.062642638545079121e-01 1.256251070514815063e-02
1.155061224489795924e-01 1.097523590707061345e+02 7.171890381129412129e-01 1.285745576793779522e-02
1.164048979591836702e-01 1.106119874318444261e+02 7.283777422601980245e-01 1.317402115681308786e-02
1.173036734693877481e-01 1.114717032720053709e+02 7.398494039799535793e-01 1.351306394691725345e-02
1.182024489795918398e-01 1.123315081644684028e+02 7.516237968176235906e-01 1.387544121339351691e-02
1.191012244897959177e-01 1.131914038117692769e+02 7.637214409104909896e-01 1.426201003138509102e-02
1.199999999999999956e-01 1.140513920484112873e+02 7.761636037658052878e-01 1.467362747603520416e-02
1.233181554716159117e-01 1.172271970578031244e+02 8.254263373554958649e-01 1.634981949933303827e-02
1.266363109432318279e-01 1.204043996975667028e+02 8.800899206457262203e-01 1.805969957884239266e-02
1.299544664148477580e-01 1.235831062615093998e+02 9.402604400386579409e-01 1.979839922488703038e-02
1.332726218864636603e-01 1.267634201342056031e+02 1.006029000272050888e+00 2.156096912996554454e-02
1.365907773580795903e-01 1.299454416316668812e+02 1.077471433226747877e+00 2.334238163984816983e-02
1.399089328296955204e-01 1.331292678504192963e+02 1.154648006629022561e+00 2.513753301294332360e-02
1.432270883013114227e-01 1.363149925239824256e+02 1.237603132206335887e+00 2.694124546512503826e-02
1.465452437729273527e-01 1.395027058858751445e+02 1.326365072875312023e+00 2.874826899627229079e-02
1.498633992445432828e-01 1.426924945383803447e+02 1.420945648556920071e+00 3.055328299402456510e-02
1.531815547161591851e-01 1.458844413263975639e+02 1.521339940226630327e+00 3.235089760965407374e-02
1.564997101877751151e-01 1.490786252157894864e+02 1.627525991817193374e+00 3.413565490047831136e-02
1.598178656593910174e-01 1.522751211756939540e+02 1.739464509599160547e+00 3.590202973284115778e-02
1.631360211310069475e-01 1.554740000643370195e+02 1.857098558669745714e+00 3.764443043937069910e-02
1.664541766026228498e-01 1.586753285179228214e+02 1.980353256184282040e+00 3.935719922395002762e-02
1.697723320742387798e-01 1.618791688422309107e+02 2.109135460966865327e+00 4.103461230761955292e-02
1.730904875458547099e-01 1.650855789065761314e+02 2.243333459137719199e+00 4.267087980839431860e-02
1.764086430174706122e-01 1.682946120398275696e+02 2.382816645394864263e+00 4.426014534783218740e-02
1.797267984890865422e-01 1.715063169282081788e+02 2.527435199586794301e+00 4.579648537698393501e-02
1.830449539607024723e-01 1.747207375146165589e+02 2.677019758211272471e+00 4.727390821418889222e-02
1.863631094323183746e-01 1.779379128992408710e+02 2.831381080473271972e+00 4.868635278699993268e-02
1.896812649039343046e-01 1.811578772412480589e+02 2.990309708532497002e+00 5.002768707033240086e-02
1.929994203755502347e-01 1.843806596613486590e+02 3.153575621568147636e+00 5.129170621278037606e-02
1.963175758471661370e-01 1.876062841450520864e+02 3.320927883285210491e+00 5.247213034248465746e-02
1.996357313187820393e-01 1.908347694464416975e+02 3.492094282484145218e+00 5.356260204472104020e-02
2.029538867903979693e-01 1.940661289923042148e+02 3.666780966312487511e+00 5.455668350143377116e-02
2.062720422620138994e-01 1.973003707864651517e+02 3.844672065813714124e+00 5.544785328433796817e-02
2.095901977336298017e-01 2.005374973141821044e+02 4.025429313387001606e+00 5.622950279191386846e-02
2.129083532052457317e-01 2.037775054464648292e+02 4.208691651769201236e+00 5.689493232062250300e-02
2.162265086768616618e-01 2.070203863441875285e+02 4.394074834149162001e+00 5.743734676027728581e-02
2.195446641484775641e-01 2.102661253618728949e+02 4.581171015024189330e+00 5.784985090313388839e-02
2.228628196200934941e-01 2.135147019510273196e+02 4.769548331409014352e+00 5.812544435586965846e-02
2.261809750917094242e-01 2.167660895629165339e+02 4.958750474009556264e+00 5.825701604320782101e-02
2.294991305633253265e-01 2.200202555506677129e+02 5.148296247977182993e+00 5.823733829151334779e-02
2.328172860349412288e-01 2.232771610705983392e+02 5.337679122864297021e+00 5.805906048023806026e-02
2.361354415065571866e-01 2.265367609826647026e+02 5.526366771409289669e+00 5.771470224863815141e-02
2.394535969781730889e-01 2.297990037499350535e+02 5.713800596788490616e+00 5.719664624471940129e-02
2.427717524497889912e-01 2.330638313369905177e+02 5.899395247985124158e+00 5.649713040290128135e-02
2.460899079214049212e-01 2.363311791071626828e+02 6.082538122940673198e+00 5.560823973642763096e-02
2.494080633930208513e-01 2.396009757185178728e+02 6.262588859173233935e+00 5.452189763010192869e-02
2.527262188646367536e-01 2.428731430185020486e+02 6.438878811570591942e+00 5.322985661849322092e-02
2.560443743362527114e-01 2.461475959371638567e+02 6.610710517093598249e+00 5.172368863435848618e-02
2.593625298078686137e-01 2.494242423788754763e+02 6.777357146158514922e+00 4.999477471166435122e-02
2.626806852794845160e-01 2.527029831124750103e+02 6.938061940506143443e+00 4.803429412728110748e-02
2.659988407511004738e-01 2.559837116597572617e+02 7.092037637411193529e+00 4.583321296518004517e-02
2.693169962227163206e-01 2.592663141822431498e+02 7.238465880138721609e+00 4.338227208679893560e-02
2.726351516943322784e-01 2.625506693661662894e+02 7.376496614616205427e+00 4.067197449117825048e-02
2.759533071659482362e-01 2.658366483056092875e+02 7.505247472360821348e+00 3.769257204852104887e-02
2.792714626375640830e-01 2.691241143837459617e+02 7.623803139783373872e+00 3.443405159101856766e-02
2.825896181091800408e-01 2.724129231521282577e+02 7.731214714083522566e+00 3.088612034513371976e-02
3.584551361069518993e-01 3.489856554606500936e+02 2.062298404752745640e+01 2.999078533018947335e-01
4.343206541047237024e-01 4.305369562947470286e+02 6.541401690081639231e+01 7.632549298915025648e-01
5.101861721024955054e-01 5.226711528267646827e+02 1.273927458320639090e+02 5.983104435890274075e-01
5.860516901002673640e-01 6.232743748767270517e+02 1.787709940372713504e+02 4.326502347055336539e-01
6.619172080980392225e-01 7.295863997832987025e+02 2.156945101732979424e+02 2.669900258220399558e-01
7.377827260958109701e-01 8.391326603380491633e+02 2.357577785421035514e+02 1.013298169385464798e-01
8.136482440935828286e-01 9.501569006779599249e+02 2.455651167219790523e+02 7.547450618856887949e-02
8.895137620913546872e-01 1.062048706216572782e+03 2.544748771589085266e+02 8.375880692824165530e-02
9.653792800891265458e-01 1.174742529703307810e+03 2.643821165506943771e+02 9.204310766791443110e-02
1.041244798086898404e+00 1.288254328944991812e+03 2.753016572224618130e+02 1.003274084075872069e-01
1.117110316084670263e+00 1.402598822219592194e+03 2.872485889238327559e+02 1.086117091472599827e-01
1.192975834082441899e+00 1.517789759551801126e+03 3.002382582526392980e+02 1.168960098869327169e-01
1.268841352080213980e+00 1.633840124128255411e+03 3.142862608889246303e+02 1.251803106266055343e-01
1.344706870077985617e+00 1.750762284972429370e+03 3.294084358871974132e+02 1.334646113662782685e-01
1.420572388075757475e+00 1.868568114781729037e+03 3.456208615108744198e+02 1.417489121059510304e-01
1.496437906073529334e+00 1.987269082333132246e+03 3.629398522455782086e+02 1.500332128456238201e-01
1.572303424071301192e+00 2.106876325976307271e+03 3.813819567297268236e+02 1.583175135852966098e-01
1.648168942069073051e+00 2.227400712828917676e+03 4.009639564103915745e+02 1.666018143249693717e-01
1.724034460066844909e+00 2.348852887002830357e+03 4.217028647809935364e+02 1.748861150646421336e-01
1.799899978064616768e+00 2.471243309303251863e+03 4.436159270920400672e+02 1.831704158043149233e-01
1.875765496062388404e+00 2.594582290219669176e+03 4.667206204512273189e+02 1.914547165439876575e-01
1.951631014060160263e+00 2.718880017582103392e+03 4.910346542477525418e+02 1.997390172836604472e-01
2.027496532057932122e+00 2.844146579932931672e+03 5.165759708495259019e+02 2.080233180233332368e-01
2.103362050055704202e+00 2.970398200213688142e+03 5.437946607984279126e+02 2.230957402774148002e-01
