# density  energy_density  pressure   sound_speed_squared  [All in nuclear units]
2.720000000000000022e-14 2.529924618736292620e-11 1.061056609100270887e-19 3.766610435412189122e-08
1.269999999999999890e-13 1.181251617980081254e-10 4.870113551826584858e-18 6.497781477172163475e-08
6.929999999999999754e-13 6.445728594625782745e-10 1.018299070687946017e-16 3.033770597342807186e-07
6.295000000000000137e-12 5.855111460395753757e-09 5.487150723824490656e-15 1.763710043904196507e-06
1.581000000000000150e-11 1.470523320212576141e-08 2.904239460150760759e-14 3.559434472327477622e-06
3.971999999999999958e-11 3.694456170323160790e-08 1.439340266754906811e-13 6.772854871245677111e-06
9.975999999999999982e-11 9.278976412613005154e-08 6.812143616221268841e-13 1.246890511177539320e-05
2.505999999999999928e-10 2.330928829758143313e-07 3.107749196951638608e-12 2.212095130576091967e-05
6.294000000000000186e-10 5.854398883216247602e-07 1.363250409771533549e-11 3.761981047239428883e-05
1.581000000000000021e-09 1.470619631082054101e-06 5.726014178088476303e-11 6.095350986710739404e-05
3.971999999999999932e-09 3.694861084648016046e-06 2.210019573374265380e-10 8.628023653304385055e-05
5.000000000000000105e-09 4.651201787816927976e-06 3.071485916280120014e-10 9.387863480799757518e-05
9.975999999999999465e-09 9.280587964640925786e-06 8.385361004129998845e-10 1.356922228656245837e-04
1.989999999999999952e-08 1.851419242998081003e-05 2.287763168863418088e-09 1.782101978513718314e-04
3.972999999999999908e-08 3.696699295748789187e-05 6.061583099087538954e-09 2.308134738384234820e-04
7.925999999999999637e-08 7.375765469301719828e-05 1.575347858094044765e-08 2.960532096713864875e-04
1.580999999999999930e-07 1.471491184379128891e-04 3.910429618672550719e-08 3.402859755131850544e-04
1.991000000000000027e-07 1.853209783927820692e-04 5.252045687899177454e-08 3.626488188833278743e-04
3.155999999999999938e-07 2.938002528823880299e-04 9.730770378831954314e-08 4.630767356912104081e-04
5.000999999999999849e-07 4.656344063839075714e-04 1.837494945860225819e-07 5.430301232045120323e-04
6.295999999999999732e-07 5.862651417037388971e-04 2.503103884558263872e-07 5.605192962670089638e-04
9.666999999999999941e-07 9.003386739730535665e-04 4.324450868778576936e-07 5.993081670211623108e-04
1.531999999999999901e-06 1.427170885631398036e-03 7.780217275717420968e-07 7.125938556504039095e-04
2.506999999999999883e-06 2.336134972129507662e-03 1.471005394641589826e-06 8.121876172121876309e-04
3.974000000000000407e-06 3.704315759716615697e-03 2.695705763844323844e-06 9.780674166779417152e-04
4.830000000000000343e-06 4.502887798316278223e-03 3.503988717694660908e-06 1.046253037768318664e-03
6.080999999999999885e-06 5.670217999231269741e-03 4.731126407333307547e-06 1.056224360839501646e-03
7.930000000000000308e-06 7.396012414119570652e-03 6.599662989063778187e-06 1.109203753630785610e-03
9.982000000000000313e-06 9.311815711689977113e-03 8.879881089227186733e-06 1.271216815433141075e-03
1.256999999999999993e-05 1.172874412604260098e-02 1.207676739913533738e-05 1.374195438212825332e-03
1.521999999999999997e-05 1.420427250933824909e-02 1.547541302213394990e-05 1.371610497379100249e-03
1.991000000000000080e-05 1.858690797761085312e-02 2.160710455847765458e-05 1.426578142835871997e-03
2.506999999999999883e-05 2.341050104039446925e-02 2.908031724375689851e-05 1.672007475975408053e-03
2.790999999999999875e-05 2.606604784714952258e-02 3.357009132255487721e-05 1.709425557744154774e-03
3.806999999999999973e-05 3.556967988784798945e-02 4.986781576435106434e-05 1.720407281314112165e-03
5.063000000000000145e-05 4.732434580343149871e-02 7.073400252905581275e-05 1.829889149838781265e-03
6.592000000000000583e-05 6.164112392498975052e-02 9.765037643900635188e-05 1.930242980462695823e-03
8.433000000000000066e-05 7.888776783401378612e-02 1.317235490470395893e-04 2.021055815200022837e-03
1.062000000000000064e-04 9.938561165478684845e-02 1.740088341640037047e-04 2.104789529260958983e-03
1.321000000000000126e-04 1.236720406455826121e-01 2.260189757651373944e-04 2.178291718403657477e-03
1.623999999999999901e-04 1.520974545104751274e-01 2.888169908545388338e-04 2.240170365918073281e-03
1.689999999999999879e-04 1.582907717069566844e-01 3.027354772999506964e-04 2.254509350360745651e-03
1.758999999999999930e-04 1.647661861691531171e-01 3.173785841705756782e-04 2.268169273277113179e-03
1.830000000000000029e-04 1.714298948183871907e-01 3.325196584577469103e-04 2.276170334580628063e-03
1.901999999999999882e-04 1.781880600978280049e-01 3.479577791899843742e-04 2.292561569242367037e-03
1.977000000000000079e-04 1.852284385240466902e-01 3.641242634600037713e-04 2.299943765467868384e-03
2.054000000000000053e-04 1.924572004474696396e-01 3.808304060475003897e-04 2.322187632288155723e-03
2.079000000000000119e-04 1.948043378760714872e-01 3.864137987380476553e-04 2.435429768083530178e-03
2.081999999999999921e-04 1.950859988578999005e-01 3.870314100985603909e-04 1.950065624557156818e-03
2.090999999999999868e-04 1.959309855029948977e-01 3.881261957135444685e-04 6.411875526909013856e-04
2.159999999999999919e-04 2.024093317906446865e-01 3.940874488768042125e-04 1.199166870571831411e-03
2.231000000000000019e-04 2.090756740932291913e-01 4.013938420547467825e-04 9.928616047829054436e-04
2.311000000000000066e-04 2.165873044433437034e-01 4.085241694843774404e-04 9.056166966301716637e-04
2.401000000000000085e-04 2.250381721984245909e-01 4.159700687886608468e-04 8.565463878902855599e-04
2.500000000000000052e-04 2.343344406330727658e-01 4.237602369176299592e-04 8.194318812157330018e-04
2.642999999999999733e-04 2.477629128650125634e-01 4.345596643180389446e-04 7.890063723638815647e-04
3.052999999999999941e-04 2.862671839140227270e-01 4.644058706720978241e-04 7.612775562167708662e-04
3.533000000000000224e-04 3.313503829113090826e-01 4.987577676308450197e-04 7.626578558207241024e-04
4.075999999999999871e-04 3.823564017794535141e-01 5.381334366106255759e-04 7.813048116943254948e-04
4.679999999999999915e-04 4.390986251953180042e-01 5.832692638200615834e-04 8.096035963157804938e-04
5.341000000000000261e-04 5.012024644415256081e-01 6.346556894078133086e-04 8.452514814113673558e-04
6.059000000000000366e-04 5.686690698184251325e-01 6.930641302632923034e-04 8.862253587289389486e-04
7.661000000000000275e-04 7.192254882508629654e-01 8.328184776562496576e-04 9.702780530519144065e-04
1.262000000000000101e-03 1.185459127778160093e+00 1.338484980802662205e-03 1.198863597978450275e-03
1.894999999999999983e-03 1.780909071169781921e+00 2.123481960401060308e-03 1.437771491635827115e-03
2.673000000000000029e-03 2.513147344746868850e+00 3.261860252001994032e-03 1.671524566936786766e-03
3.605999999999999830e-03 3.391736073717691369e+00 4.828136641022434151e-03 1.893900408978071038e-03
4.709999999999999777e-03 4.431905410739045870e+00 6.903512974832482635e-03 2.096551352830673849e-03
7.496000000000000059e-03 7.058993649504918366e+00 1.289742191321638018e-02 2.466596387205546859e-03
1.119999999999999989e-02 1.055540362104863661e+01 2.212077014004794340e-02 2.809304433764861584e-03
1.600000000000000033e-02 1.509117352747679952e+01 3.559566804390756900e-02 3.132325055719984222e-03
2.206999999999999934e-02 2.083310616724802244e+01 5.457322122755020599e-02 3.477840948757840792e-03
2.947999999999999926e-02 2.785007348564149154e+01 8.049103664263126956e-02 3.909302116317729670e-03
4.268000000000000266e-02 4.036707211535221518e+01 1.353887601042819133e-01 4.862066536253286525e-03
6.219999999999999835e-02 5.891246509830522626e+01 2.419691225623893105e-01 6.630786177272363080e-03
7.316999999999999893e-02 6.935151695866235855e+01 3.161896974764099033e-01 7.588671314871411888e-03
7.595999999999999974e-02 7.200836722020332559e+01 3.371250777904805096e-01 8.170805199905812125e-03
7.685877551020407761e-02 7.286441675493500725e+01 3.441983969477964700e-01 8.354677702524010777e-03
7.775755102040816935e-02 7.372054990170013866e+01 3.514254926878505603e-01 8.528426926643828052e-03
7.865632653061224722e-02 7.457676742348301957e+01 3.587980170232998867e-01 8.692714516099812883e-03
7.955510204081632508e-02 7.543306997364055633e+01 3.663081854823155292e-01 8.848202114726536754e-03
8.045387755102040295e-02 7.628945810598553123e+01 3.739487773144462568e-01 8.995551366358553805e-03
8.135265306122449469e-02 7.714593228442333839e+01 3.817131357132916292e-01 9.135423914830430314e-03
8.225142857142857256e-02 7.800249289216353077e+01 3.895951680533119021e-01 9.268481403976720420e-03
8.315020408163265042e-02 7.885914024053283811e+01 3.975893461384077399e-01 9.395385477631988669e-03
8.404897959183672829e-02 7.971587457740902494e+01 4.056907064601794066e-01 9.516797779630790932e-03
8.494775510204082003e-02 8.057269609529697618e+01 4.138948504640398984e-01 9.633379953807695226e-03
8.584653061224489790e-02 8.142960493906572594e+01 4.221979448215978925e-01 9.745793643997255687e-03
8.674530612244897576e-02 8.228660121336454836e+01 4.305967217079557652e-01 9.854700494034035127e-03
8.764408163265305363e-02 8.314368498973401245e+01 4.390884790827760398e-01 9.960762147752594622e-03
8.854285714285714537e-02 8.400085631342909664e+01 4.476710809741727415e-01 1.006464024898749525e-02
8.944163265306122323e-02 8.485811520996713853e+01 4.563429577646642143e-01 1.016699644157329288e-02
9.034040816326530110e-02 8.571546169141598170e+01 4.651031064786029789e-01 1.026849236934455727e-02
9.123918367346939284e-02 8.657289576243491069e+01 4.739510910706541402e-01 1.036978967613583907e-02
9.213795918367347071e-02 8.743041742607979927e+01 4.828870427150510070e-01 1.047155000578170285e-02
9.303673469387754857e-02 8.828802668938489262e+01 4.919116600954985263e-01 1.057443500211670967e-02
9.393551020408162644e-02 8.914572356873162562e+01 5.010262096957258660e-01 1.067910630897541888e-02
9.483428571428570431e-02 9.000350809501487959e+01 5.102325260908194826e-01 1.078622557019238981e-02
9.573306122448979605e-02 9.086138031861591458e+01 5.195330122395847017e-01 1.089645442960218875e-02
9.663183673469387391e-02 9.171934031419097266e+01 5.289306397782932434e-01 1.101045453103936984e-02
9.753061224489795178e-02 9.257738818528551406e+01 5.384289493162842666e-01 1.112888751833849589e-02
9.842938775510204352e-02 9.343552406877965666e+01 5.480320507339786484e-01 1.125241503533413144e-02
9.932816326530612139e-02 9.429374813917527831e+01 5.577446234839634753e-01 1.138169872586082716e-02
1.002269387755101993e-01 9.515206061272978388e+01 5.675719168958928140e-01 1.151740023375315281e-02
1.011257142857142910e-01 9.601046175144452377e+01 5.775197504860292153e-01 1.166018120284566598e-02
1.020244897959183689e-01 9.686895186691459969e+01 5.875945142723315584e-01 1.181070327697292602e-02
1.029232653061224467e-01 9.772753132404524479e+01 5.978031690960716737e-01 1.196962809996949227e-02
1.038220408163265246e-01 9.858620054464151394e+01 6.081532469510255723e-01 1.213761731566992755e-02
1.047208163265306025e-01 9.944496001087659920e+01 6.186528513213581659e-01 1.231533256790879119e-02
1.056195918367346942e-01 1.003038102686436872e+02 6.293106575293798688e-01 1.250343550052064948e-02
1.065183673469387721e-01 1.011627519307970573e+02 6.401359130944125342e-01 1.270258775734005481e-02
1.074171428571428499e-01 1.020217856802867544e+02 6.511384381040636882e-01 1.291345098220156654e-02
1.083159183673469417e-01 1.028809122731913419e+02 6.623286255992546501e-01 1.313668681893975440e-02
1.092146938775510195e-01 1.037401325416533950e+02 6.737174419744041964e-01 1.337295691138917254e-02
1.101134693877550974e-01 1.045994473967217999e+02 6.853164273942194962e-01 1.362292290338438204e-02
1.110122448979591891e-01 1.054588578311042824e+02 6.971376962285861234e-01 1.388724643875994917e-02
1.119110204081632531e-01 1.063183649218350837e+02 7.091939375070984708e-01 1.416658916135042114e-02
1.128097959183673449e-01 1.071779698328599437e+02 7.214984153948155177e-01 1.446161271499037462e-02
1.137085714285714227e-01 1.080376738175432223e+02 7.340649696908571054e-01 1.477297874351435683e-02
1.146073469387755006e-01 1.088974782210991350e+02 7.469080163515106063e-01 1.510134889075693404e-02
1.155061224489795924e-01 1.097573844829514087e+02 7.600425480395381905e-01 1.544738480055267253e-02
1.164048979591836702e-01 1.106173941390237161e+02 7.734841347014210777e-01 1.581174811673612124e-02
1.173036734693877481e-01 1.114775088239637881e+02 7.872489241743094723e-01 1.619510048314184644e-02
1.182024489795918398e-01 1.123377302733045013e+02 8.013536428244741883e-01 1.659810354360441095e-02
1.191012244897959177e-01 1.131980603255635884e+02 8.158155962190923871e-01 1.702141894195836891e-02
1.199999999999999956e-01 1.140585009242859087e+02 8.306526698332316050e-01 1.746570832203828832e-02
1.226457867394725454e-01 1.165921059217833857e+02 8.766774698611770056e-01 1.886550791935170598e-02
1.252915734789450952e-01 1.191267424325017572e+02 9.263062913691119116e-01 2.029472061447630191e-02
1.279373602184176451e-01 1.216624655954047114e+02 9.796162387100133540e-01 2.175211987825982976e-02
1.305831469578901949e-01 1.241993298348001105e+02 1.036681639433239654e+00 2.323649355608665631e-02
1.332289336973627725e-01 1.267373888478805668e+02 1.097574080308696409e+00 2.474664420485752497e-02
1.358747204368353223e-01 1.292766955939676166e+02 1.162362443337816131e+00 2.628138938566766322e-02
1.385205071763078721e-01 1.318173022852956251e+02 1.231112941678787820e+00 2.783956191366511457e-02
1.411662939157804220e-01 1.343592603791838371e+02 1.303889155416632528e+00 2.942001006645132699e-02
1.438120806552529718e-01 1.369026205714647801e+02 1.380752067111498560e+00 3.102159775227558702e-02
1.464578673947255216e-01 1.394474327910463103e+02 1.461760097060946340e+00 3.264320463919386656e-02
1.491036541341980715e-01 1.419937461955023252e+02 1.546969138214087769e+00 3.428372624627840093e-02
1.517494408736706490e-01 1.445416091675909342e+02 1.636432590677266985e+00 3.594207399790307067e-02
1.543952276131431711e-01 1.470910693126145361e+02 1.730201395752547944e+00 3.761717524206990154e-02
1.570410143526157487e-01 1.496421734565383304e+02 1.828324069451680245e+00 3.930797323369372015e-02
1.596868010920882985e-01 1.521949676447966908e+02 1.930846735429352146e+00 4.101342708371857881e-02
1.623325878315608484e-01 1.547494971417179670e+02 2.037813157280673693e+00 4.273251167490321745e-02
1.649783745710333982e-01 1.573058064305083690e+02 2.149264770148649362e+00 4.446421754508039087e-02
1.676241613105059480e-01 1.598639392137378934e+02 2.265240711588255795e+00 4.620755073866755075e-02
1.702699480499785256e-01 1.624239384142761367e+02 2.385777851634401703e+00 4.796153262718309135e-02
1.729157347894510477e-01 1.649858461766301616e+02 2.510910822021651612e+00 4.972519969950204427e-02
1.755615215289236253e-01 1.675497038686420694e+02 2.640672044504166927e+00 5.149760332256841239e-02
1.782073082683961751e-01 1.701155520835030188e+02 2.775091758224718319e+00 5.327780947326660882e-02
1.808530950078687249e-01 1.726834306420461758e+02 2.914198046082159710e+00 5.506489844214551566e-02
1.834988817473412748e-01 1.752533785952847154e+02 3.058016860047048535e+00 5.685796450967654098e-02
1.861446684868138246e-01 1.778254342271594908e+02 3.206572045375533975e+00 5.865611559572420780e-02
1.887904552262863744e-01 1.803996350574671794e+02 3.359885363671961667e+00 6.045847288290191052e-02
1.914362419657589243e-01 1.829760178449389514e+02 3.517976514751007144e+00 6.226417041448482209e-02
1.940820287052315019e-01 1.855546185904422032e+02 3.680863157250500617e+00 6.407235466755324682e-02
1.967278154447040239e-01 1.881354725402802330e+02 3.848560927946468535e+00 6.588218410204171871e-02
1.993736021841766015e-01 1.907186141895656704e+02 4.021083459722363251e+00 6.769282868637792328e-02
2.020193889236491513e-01 1.933040772856425633e+02 4.198442398144776710e+00 6.950346940039996146e-02
2.046651756631217012e-01 1.958918948315384227e+02 4.380647416598558941e+00 7.131329771625638525e-02
2.073109624025942510e-01 1.984820990894231159e+02 4.567706229934642259e+00 7.312151505800378037e-02
2.099567491420668008e-01 2.010747215840562205e+02 4.759624606584582196e+00 7.492733224063617692e-02
2.126025358815393784e-01 2.036697931062022349e+02 4.956406379096429227e+00 7.672996888930075365e-02
2.152483226210119005e-01 2.062673437159982370e+02 5.158053453047338088e+00 7.852865283947760289e-02
2.178941093604844781e-01 2.088674027462542711e+02 5.364565814289208312e+00 8.032261951893024388e-02
2.205398960999570279e-01 2.114699988056717643e+02 5.575941534484526230e+00 8.211111131226440929e-02
2.231856828394295778e-01 2.140751597819626966e+02 5.792176774890847035e+00 8.389337690897014088e-02
2.258314695789021276e-01 2.166829128448564745e+02 6.013265788353438168e+00 8.566867063586196263e-02
2.284772563183746774e-01 2.192932844489770332e+02 6.239200919467130291e+00 8.743625177487802935e-02
2.311230430578472272e-01 2.219063003365787949e+02 6.469972602869948020e+00 8.919538386725059387e-02
2.337688297973197771e-01 2.245219855401264510e+02 6.705569359632887583e+00 9.094533400511832510e-02
2.364146165367923547e-01 2.271403643847066292e+02 6.945977791712198979e+00 9.268537211171229417e-02
2.390604032762648767e-01 2.297614604902581164e+02 7.191182574432737340e+00 9.441477021131843006e-02
2.417061900157374543e-01 2.323852967736098662e+02 7.441166446973496384e+00 9.613280169029748967e-02
2.443519767552100042e-01 2.350118954503128350e+02 7.695910200829030323e+00 9.783874055052554919e-02
2.469977634946825540e-01 2.376412780362595356e+02 7.955392666223779052e+00 9.953186065671516813e-02
2.496435502341551038e-01 2.402734653490738026e+02 8.219590696459459167e+00 1.012114349791755075e-01
3.261814369640703148e-01 3.179979036618222494e+02 1.985249665092100457e+01 1.962132938286339501e-01
4.027193236939855536e-01 3.993331068875218079e+02 3.978166956719505265e+01 2.912151526780923927e-01
4.792572104239007369e-01 4.852658700421076787e+02 6.902754721655408332e+01 3.862170115275507798e-01
5.557950971538159202e-01 5.766440401427328197e+02 1.088344250780600362e+02 4.812188703770092224e-01
6.323329838837311589e-01 6.742657066905982219e+02 1.606636001720879960e+02 5.762207292264676095e-01
7.088708706136463977e-01 7.789244986100632104e+02 2.262023542070394342e+02 6.712225880759261631e-01
7.854087573435615255e-01 8.914364637754067644e+02 3.073815029514907451e+02 7.662244469253844947e-01
8.619466440734767643e-01 1.012593749539036935e+03 3.994514780493652779e+02 7.546863559884587902e-01
9.384845308033920031e-01 1.142118945641912433e+03 4.936478422482440465e+02 7.028737351122087418e-01
1.015022417533307353e+00 1.279279230618942393e+03 5.863255144825145635e+02 6.510611142359585823e-01
1.091560304263222481e+00 1.423334658147315167e+03 6.762296779187099673e+02 5.992484933597086449e-01
1.168098190993137608e+00 1.573568247981779678e+03 7.624019110258318506e+02 5.496170593663948223e-01
1.244636077723052958e+00 1.729353060577974475e+03 8.471372746623917465e+02 5.386661000595835969e-01
1.321173964452968086e+00 1.890385761266937607e+03 9.329671778626142213e+02 5.277151407527724825e-01
1.397711851182883436e+00 2.056418414475199825e+03 1.019646968398735225e+03 5.167641814459612570e-01
1.474249737912798563e+00 2.227486375914274959e+03 1.138750529761213784e+03 8.649503829249522990e-01
1.550787624642713691e+00 2.406125198567343432e+03 1.284241563586635039e+03 7.676748212324726595e-01
1.627325511372629041e+00 2.591638684866846688e+03 1.417355309133900846e+03 6.703992595399926868e-01
1.703863398102544169e+00 2.783072155642629696e+03 1.536157709297594920e+03 5.731236978475129362e-01
1.780401284832459519e+00 2.979476519406458465e+03 1.638995036789175174e+03 4.758481361550330746e-01
1.856939171562374646e+00 3.179977006120163878e+03 1.729026105872667813e+03 4.229872060858220206e-01
1.933477058292289774e+00 3.384123568491673723e+03 1.820549888213351551e+03 4.730482450576787845e-01
2.010014945022204902e+00 3.592059286858966061e+03 1.917622295243782446e+03 4.608340347511897805e-01
2.086552831752120252e+00 3.803676140872797987e+03 2.013830165978537480e+03 4.486198244447007211e-01
