# density  energy_density  pressure   sound_speed_squared  [All in nuclear units]
2.720000000000000022e-14 2.529924618736292620e-11 1.061056609100270887e-19 3.766610435412189122e-08
1.269999999999999890e-13 1.181251617980081254e-10 4.870113551826584858e-18 6.497781477172163475e-08
6.929999999999999754e-13 6.445728594625782745e-10 1.018299070687946017e-16 3.033770597342807186e-07
6.295000000000000137e-12 5.855111460395753757e-09 5.487150723824490656e-15 1.763710043904196507e-06
1.581000000000000150e-11 1.470523320212576141e-08 2.904239460150760759e-14 3.559434472327477622e-06
3.971999999999999958e-11 3.694456170323160790e-08 1.439340266754906811e-13 6.772854871245677111e-06
9.975999999999999982e-11 9.278976412613005154e-08 6.812143616221268841e-13 1.246890511177539320e-05
2.505999999999999928e-10 2.330928829758143313e-07 3.107749196951638608e-12 2.212095130576091967e-05
6.294000000000000186e-10 5.854398883216247602e-07 1.363250409771533549e-11 3.761981047239428883e-05
1.581000000000000021e-09 1.470619631082054101e-06 5.726014178088476303e-11 6.095350986710739404e-05
3.971999999999999932e-09 3.694861084648016046e-06 2.210019573374265380e-10 8.628023653304385055e-05
5.000000000000000105e-09 4.651201787816927976e-06 3.071485916280120014e-10 9.387863480799757518e-05
9.975999999999999465e-09 9.280587964640925786e-06 8.385361004129998845e-10 1.356922228656245837e-04
1.989999999999999952e-08 1.851419242998081003e-05 2.287763168863418088e-09 1.782101978513718314e-04
3.972999999999999908e-08 3.696699295748789187e-05 6.061583099087538954e-09 2.308134738384234820e-04
7.925999999999999637e-08 7.375765469301719828e-05 1.575347858094044765e-08 2.960532096713864875e-04
1.580999999999999930e-07 1.471491184379128891e-04 3.910429618672550719e-08 3.402859755131850544e-04
1.991000000000000027e-07 1.853209783927820692e-04 5.252045687899177454e-08 3.626488188833278743e-04
3.155999999999999938e-07 2.938002528823880299e-04 9.730770378831954314e-08 4.630767356912104081e-04
5.000999999999999849e-07 4.656344063839075714e-04 1.837494945860225819e-07 5.430301232045120323e-04
6.295999999999999732e-07 5.862651417037388971e-04 2.503103884558263872e-07 5.605192962670089638e-04
9.666999999999999941e-07 9.003386739730535665e-04 4.324450868778576936e-07 5.993081670211623108e-04
1.531999999999999901e-06 1.427170885631398036e-03 7.780217275717420968e-07 7.125938556504039095e-04
2.506999999999999883e-06 2.336134972129507662e-03 1.471005394641589826e-06 8.121876172121876309e-04
3.974000000000000407e-06 3.704315759716615697e-03 2.695705763844323844e-06 9.780674166779417152e-04
4.830000000000000343e-06 4.502887798316278223e-03 3.503988717694660908e-06 1.046253037768318664e-03
6.080999999999999885e-06 5.670217999231269741e-03 4.731126407333307547e-06 1.056224360839501646e-03
7.930000000000000308e-06 7.396012414119570652e-03 6.599662989063778187e-06 1.109203753630785610e-03
9.982000000000000313e-06 9.311815711689977113e-03 8.879881089227186733e-06 1.271216815433141075e-03
1.256999999999999993e-05 1.172874412604260098e-02 1.207676739913533738e-05 1.374195438212825332e-03
1.521999999999999997e-05 1.420427250933824909e-02 1.547541302213394990e-05 1.371610497379100249e-03
1.991000000000000080e-05 1.858690797761085312e-02 2.160710455847765458e-05 1.426578142835871997e-03
2.506999999999999883e-05 2.341050104039446925e-02 2.908031724375689851e-05 1.672007475975408053e-03
2.790999999999999875e-05 2.606604784714952258e-02 3.357009132255487721e-05 1.709425557744154774e-03
3.806999999999999973e-05 3.556967988784798945e-02 4.986781576435106434e-05 1.720407281314112165e-03
5.063000000000000145e-05 4.732434580343149871e-02 7.073400252905581275e-05 1.829889149838781265e-03
6.592000000000000583e-05 6.164112392498975052e-02 9.765037643900635188e-05 1.930242980462695823e-03
8.433000000000000066e-05 7.888776783401378612e-02 1.317235490470395893e-04 2.021055815200022837e-03
1.062000000000000064e-04 9.938561165478684845e-02 1.740088341640037047e-04 2.104789529260958983e-03
1.321000000000000126e-04 1.236720406455826121e-01 2.260189757651373944e-04 2.178291718403657477e-03
1.623999999999999901e-04 1.520974545104751274e-01 2.888169908545388338e-04 2.240170365918073281e-03
1.689999999999999879e-04 1.582907717069566844e-01 3.027354772999506964e-04 2.254509350360745651e-03
1.758999999999999930e-04 1.647661861691531171e-01 3.173785841705756782e-04 2.268169273277113179e-03
1.830000000000000029e-04 1.714298948183871907e-01 3.325196584577469103e-04 2.276170334580628063e-03
1.901999999999999882e-04 1.781880600978280049e-01 3.479577791899843742e-04 2.292561569242367037e-03
1.977000000000000079e-04 1.852284385240466902e-01 3.641242634600037713e-04 2.299943765467868384e-03
2.054000000000000053e-04 1.924572004474696396e-01 3.808304060475003897e-04 2.322187632288155723e-03
2.079000000000000119e-04 1.948043378760714872e-01 3.864137987380476553e-04 2.435429768083530178e-03
2.081999999999999921e-04 1.950859988578999005e-01 3.870314100985603909e-04 1.950065624557156818e-03
2.090999999999999868e-04 1.959309855029948977e-01 3.881261957135444685e-04 6.411875526909013856e-04
2.159999999999999919e-04 2.024093317906446865e-01 3.940874488768042125e-04 1.199166870571831411e-03
2.231000000000000019e-04 2.090756740932291913e-01 4.013938420547467825e-04 9.928616047829054436e-04
2.311000000000000066e-04 2.165873044433437034e-01 4.085241694843774404e-04 9.056166966301716637e-04
2.401000000000000085e-04 2.250381721984245909e-01 4.159700687886608468e-04 8.565463878902855599e-04
2.500000000000000052e-04 2.343344406330727658e-01 4.237602369176299592e-04 8.194318812157330018e-04
2.642999999999999733e-04 2.477629128650125634e-01 4.345596643180389446e-04 7.890063723638815647e-04
3.052999999999999941e-04 2.862671839140227270e-01 4.644058706720978241e-04 7.612775562167708662e-04
3.533000000000000224e-04 3.313503829113090826e-01 4.987577676308450197e-04 7.626578558207241024e-04
4.075999999999999871e-04 3.823564017794535141e-01 5.381334366106255759e-04 7.813048116943254948e-04
4.679999999999999915e-04 4.390986251953180042e-01 5.832692638200615834e-04 8.096035963157804938e-04
5.341000000000000261e-04 5.012024644415256081e-01 6.346556894078133086e-04 8.452514814113673558e-04
6.059000000000000366e-04 5.686690698184251325e-01 6.930641302632923034e-04 8.862253587289389486e-04
7.661000000000000275e-04 7.192254882508629654e-01 8.328184776562496576e-04 9.702780530519144065e-04
1.262000000000000101e-03 1.185459127778160093e+00 1.338484980802662205e-03 1.198863597978450275e-03
1.894999999999999983e-03 1.780909071169781921e+00 2.123481960401060308e-03 1.437771491635827115e-03
2.673000000000000029e-03 2.513147344746868850e+00 3.261860252001994032e-03 1.671524566936786766e-03
3.605999999999999830e-03 3.391736073717691369e+00 4.828136641022434151e-03 1.893900408978071038e-03
4.709999999999999777e-03 4.431905410739045870e+00 6.903512974832482635e-03 2.096551352830673849e-03
7.496000000000000059e-03 7.058993649504918366e+00 1.289742191321638018e-02 2.466596387205546859e-03
1.119999999999999989e-02 1.055540362104863661e+01 2.212077014004794340e-02 2.809304433764861584e-03
1.600000000000000033e-02 1.509117352747679952e+01 3.559566804390756900e-02 3.132325055719984222e-03
2.206999999999999934e-02 2.083310616724802244e+01 5.457322122755020599e-02 3.477840948757840792e-03
2.947999999999999926e-02 2.785007348564149154e+01 8.049103664263126956e-02 3.909302116317729670e-03
4.268000000000000266e-02 4.036707211535221518e+01 1.353887601042819133e-01 4.862066536253286525e-03
6.219999999999999835e-02 5.891246509830522626e+01 2.419691225623893105e-01 6.630786177272363080e-03
7.316999999999999893e-02 6.935151695866235855e+01 3.161896974764099033e-01 7.588671314871411888e-03
7.595999999999999974e-02 7.200836722020332559e+01 3.371250777904805096e-01 8.170805199905812125e-03
7.685877551020407761e-02 7.286441678531103605e+01 3.442035952467075721e-01 8.366821371297013948e-03
7.775755102040816935e-02 7.372055010318059942e+01 3.514496451514138031e-01 8.560557412949120967e-03
7.865632653061224722e-02 7.457676813182307285e+01 3.588614186518289118e-01 8.752252738515226699e-03
7.955510204081632508e-02 7.543307178784819200e+01 3.664373115449130469e-01 8.942146761648440273e-03
8.045387755102040295e-02 7.628946195018062326e+01 3.741759243501270316e-01 9.130478896001858677e-03
8.135265306122449469e-02 7.714593946361047472e+01 3.820760623870601003e-01 9.317488555228585836e-03
8.225142857142857256e-02 7.800250514218802778e+01 3.901367358575498212e-01 9.503415152981718739e-03
8.315020408163265042e-02 7.885915977247097430e+01 3.983571599319723489e-01 9.688498102914363044e-03
8.404897959183672829e-02 7.971590411663223108e+01 4.067367548394156263e-01 9.872976818679610536e-03
8.494775510204082003e-02 8.057273891543580646e+01 4.152751459614864027e-01 1.005709071393057902e-02
8.584653061224489790e-02 8.142966489108728467e+01 4.239721639295320199e-01 1.024107920232035160e-02
8.674530612244897576e-02 8.228668274996668686e+01 4.328278447250922256e-01 1.042518169750203741e-02
8.764408163265305363e-02 8.314379318524882478e+01 4.418424297834190884e-01 1.060963761312873690e-02
8.854285714285714537e-02 8.400099687941684579e+01 4.510163660999356727e-01 1.079468636285355922e-02
8.944163265306122323e-02 8.485829450667522167e+01 4.603503063395240624e-01 1.098056736032958919e-02
9.034040816326530110e-02 8.571568673526687121e+01 4.698451089485614074e-01 1.116752001920993768e-02
9.123918367346939284e-02 8.657317422969900633e+01 4.795018382696395465e-01 1.135578375314770343e-02
9.213795918367347071e-02 8.743075765288244838e+01 4.893217646589269609e-01 1.154559797579599034e-02
9.303673469387754857e-02 8.828843766818883410e+01 4.993063646061529082e-01 1.173720210080789542e-02
9.393551020408162644e-02 8.914621494142882341e+01 5.094573208572056311e-01 1.193083554183652084e-02
9.483428571428570431e-02 9.000409014275702191e+01 5.197765225393599087e-01 1.212673771253496534e-02
9.573306122448979605e-02 9.086206394850421475e+01 5.302660652891612036e-01 1.232514802655634151e-02
9.663183673469387391e-02 9.172013704294374747e+01 5.409282513830089290e-01 1.252630589755373593e-02
9.753061224489795178e-02 9.257831011999194004e+01 5.517655898704989514e-01 1.273045073918025079e-02
9.842938775510204352e-02 9.343658388484801947e+01 5.627807967105925568e-01 1.293782196508900043e-02
9.932816326530612139e-02 9.429495905557513424e+01 5.739767949106964195e-01 1.314865898893307315e-02
1.002269387755101993e-01 9.515343636462502275e+01 5.853567146687507217e-01 1.336320122436557116e-02
1.011257142857142910e-01 9.601201656030985987e+01 5.969238935184280059e-01 1.358168808503960358e-02
1.020244897959183689e-01 9.687070040822260353e+01 6.086818764775610013e-01 1.380435898460826045e-02
1.029232653061224467e-01 9.772948869260936533e+01 6.206344161999280962e-01 1.403145333672464745e-02
1.038220408163265246e-01 9.858838221769373433e+01 6.327854731305289082e-01 1.426321055504187196e-02
1.047208163265306025e-01 9.944738180895846824e+01 6.451392156644978337e-01 1.449987005321302577e-02
1.056195918367346942e-01 1.003064883143828325e+02 6.577000203098085640e-01 1.474167124489121627e-02
1.065183673469387721e-01 1.011657026056405471e+02 6.704724718539297745e-01 1.498885354372954046e-02
1.074171428571428499e-01 1.020250255792578287e+02 6.834613635346042937e-01 1.524165636338109878e-02
1.083159183673469417e-01 1.028844581577345849e+02 6.966716972149253895e-01 1.550031911749899863e-02
1.092146938775510195e-01 1.037440012906296403e+02 7.101086835628940275e-01 1.576508121973633006e-02
1.101134693877550974e-01 1.046036559556118988e+02 7.237777422356502788e-01 1.603618208374620047e-02
1.110122448979591891e-01 1.054634231594786655e+02 7.376845020685713905e-01 1.631386112318172071e-02
1.119110204081632531e-01 1.063233039391424057e+02 7.518348012694393567e-01 1.659835775169597044e-02
1.128097959183673449e-01 1.071832993625875474e+02 7.662346876178911526e-01 1.688991138294207092e-02
1.137085714285714227e-01 1.080434105297981802e+02 7.808904186703550243e-01 1.718876143057310873e-02
1.146073469387755006e-01 1.089036385736586254e+02 7.958084619707039842e-01 1.749514730824219128e-02
1.155061224489795924e-01 1.097639846608266225e+02 8.109954952668397832e-01 1.780930842960241900e-02
1.164048979591836702e-01 1.106244499925814040e+02 8.264584067334406203e-01 1.813148420830689583e-02
1.173036734693877481e-01 1.114850358056477120e+02 8.422042952011074002e-01 1.846191405800871876e-02
1.182024489795918398e-01 1.123457433729956847e+02 8.582404703921411304e-01 1.880083739236098825e-02
1.191012244897959177e-01 1.132065740046188438e+02 8.745744531631963747e-01 1.914849362501680821e-02
1.199999999999999956e-01 1.140675290482897850e+02 8.912139757550580077e-01 1.950512216962927564e-02
1.222723151172134121e-01 1.162447921081815991e+02 9.347024256190257230e-01 2.044253608500537847e-02
1.245446302344268147e-01 1.184228827435557463e+02 9.802865763640258301e-01 2.141427994427197792e-02
1.268169453516402312e-01 1.206018247951636511e+02 1.028043886816320640e+00 2.242086185426671666e-02
1.290892604688536338e-01 1.227816426487130457e+02 1.078053092931670287e+00 2.346278803260602730e-02
1.313615755860670642e-01 1.249623612286098080e+02 1.130394212680494226e+00 2.454056287499969263e-02
1.336338907032804668e-01 1.271440059922221337e+02 1.185148551350955870e+00 2.565468900715580508e-02
1.359062058204938694e-01 1.293266029246277355e+02 1.242398707241861855e+00 2.680566732241432271e-02
1.381785209377072998e-01 1.315101785338104889e+02 1.302228577719586555e+00 2.799399700614244382e-02
1.404508360549207024e-01 1.336947598462755593e+02 1.364723365615371886e+00 2.922017554782636861e-02
1.427231511721341328e-01 1.358803744030552707e+02 1.429969585941283761e+00 3.048469874171400723e-02
1.449954662893475354e-01 1.380670502560773230e+02 1.498055072904822982e+00 3.178806067678571767e-02
1.472677814065609381e-01 1.402548159648733872e+02 1.569068987203837917e+00 3.313075371677797615e-02
1.495400965237743685e-01 1.424437005936065077e+02 1.643101823584726340e+00 3.451326847083958926e-02
1.518124116409877711e-01 1.446337337083938621e+02 1.720245418648384872e+00 3.593609375560369301e-02
1.540847267582011737e-01 1.468249453749101860e+02 1.800592958889511541e+00 3.739971654898584241e-02
1.563570418754146041e-01 1.490173661562520238e+02 1.884238988955885929e+00 3.890462193640110283e-02
1.586293569926280067e-01 1.512110271110475992e+02 1.971279420115413128e+00 4.045129304980127349e-02
1.609016721098414093e-01 1.534059597917982387e+02 2.061811538919589459e+00 4.204021099998327821e-02
1.631739872270548397e-01 1.556021962434362536e+02 2.155934016052894364e+00 4.367185480257727154e-02
1.654463023442682423e-01 1.577997690020888797e+02 2.253746915358428637e+00 4.534670129809568323e-02
1.677186174614816450e-01 1.599987110940336379e+02 2.355351703030861721e+00 4.706522506639894410e-02
1.699909325786950753e-01 1.621990560348377528e+02 2.460851256968380696e+00 4.882789833591096029e-02
1.722632476959084780e-01 1.644008378286679886e+02 2.570349876275996426e+00 5.063519088789762007e-02
1.745355628131218806e-01 1.666040909677639945e+02 2.683953290913138723e+00 5.248756995610188297e-02
1.768078779303353110e-01 1.688088504320659240e+02 2.801768671478961803e+00 5.438550012201301409e-02
1.790801930475487136e-01 1.710151516889865775e+02 2.923904639129318195e+00 5.632944320603146260e-02
1.813525081647621162e-01 1.732230306933233805e+02 3.050471275619809575e+00 5.831985815477730428e-02
1.836248232819755466e-01 1.754325238872999364e+02 3.181580133469708471e+00 6.035720092477678267e-02
1.858971383991889492e-01 1.776436682007324919e+02 3.317344246241971550e+00 6.244192436275065178e-02
1.881694535164023518e-01 1.798565010513152913e+02 3.457878138934932011e+00 6.457447808271574163e-02
1.904417686336157822e-01 1.820710603450170311e+02 3.603297838481544613e+00 6.675530834010320880e-02
1.927140837508291848e-01 1.842873844765851743e+02 3.753720884352413023e+00 6.898485790308662990e-02
1.949863988680425875e-01 1.865055123301520723e+02 3.909266339259114709e+00 7.126356592130458911e-02
1.972587139852560179e-01 1.887254832799373219e+02 4.070054799954554881e+00 7.359186779215658170e-02
1.995310291024694205e-01 1.909473371910442268e+02 4.236208408127376757e+00 7.597019502484096687e-02
2.018033442196828231e-01 1.931711144203425476e+02 4.407850861387668573e+00 7.839897510230099675e-02
2.040756593368962535e-01 1.953968558174373982e+02 4.585107424341382298e+00 8.087863134123512987e-02
2.063479744541096561e-01 1.976246027257179207e+02 4.768104939751100169e+00 8.340958275032554770e-02
2.086202895713230587e-01 1.998543969834834684e+02 4.956971839780974776e+00 8.599224388683121556e-02
2.108926046885364891e-01 2.020862809251438534e+02 5.151838157323767042e+00 8.862702471168910912e-02
2.131649198057498917e-01 2.043202973824889455e+02 5.352835537408100919e+00 9.131433044326027482e-02
2.154372349229632944e-01 2.065564896860287547e+02 5.560097248684196636e+00 9.405456140985721247e-02
2.177095500401767247e-01 2.087949016663954751e+02 5.773758194986394976e+00 9.684811290118003346e-02
2.199818651573901274e-01 2.110355776558106982e+02 5.993954926970937791e+00 9.969537501877302754e-02
2.222541802746035300e-01 2.132785624896111472e+02 6.220825653827655621e+00 1.025967325257287205e-01
2.245264953918169604e-01 2.155239015078321927e+02 6.454510255064069391e+00 1.055525646954979802e-01
2.267988105090303630e-01 2.177716405568474443e+02 6.695150292360634303e+00 1.085632451602723675e-01
2.290711256262437656e-01 2.200218259910613483e+02 6.942889021496033486e+00 1.116291417587926549e-01
2.313434407434571960e-01 2.222745046746540254e+02 7.197871404341221080e+00 1.147506163837991033e-01
3.082547990956315265e-01 3.001761211575573043e+02 1.825469252913837792e+01 1.681477732004900139e-01
3.851661574478059125e-01 3.814043888810437011e+02 3.412568446178531190e+01 2.215449300171809521e-01
4.620775157999802429e-01 4.663003136105522799e+02 5.525091809112016961e+01 2.749420868338718349e-01
5.389888741521545734e-01 5.558124744028485793e+02 9.877753472768502263e+01 6.764510336351997610e-01
6.159002325043289039e-01 6.536368425821837036e+02 1.629678523833217412e+02 6.393286725735906062e-01
6.928115908565033454e-01 7.595936265566926977e+02 2.285972353610127357e+02 6.022063115119813403e-01
7.697229492086776759e-01 8.728765992526939499e+02 2.945886574786670167e+02 5.650839504503720745e-01
8.466343075608520063e-01 9.927446662791563767e+02 3.602151576799884651e+02 5.315661740446677719e-01
9.235456659130263368e-01 1.118625490526537760e+03 4.288847289002809475e+02 5.587275054524344364e-01
1.000457024265200667e+00 1.250504148845601094e+03 5.044089311896227628e+02 5.858888368602011010e-01
1.077368382617374998e+00 1.388460332523656234e+03 5.871614622282993423e+02 6.130501682679677655e-01
1.154279740969549328e+00 1.532589634980705341e+03 6.775324964075585967e+02 6.402114996757344301e-01
1.231191099321723659e+00 1.683001475193575743e+03 7.759290512672616842e+02 6.673728310835009836e-01
1.308102457673897989e+00 1.839817567754521860e+03 8.827754455838997956e+02 6.945341624912676481e-01
1.385013816026072320e+00 2.003170782954761762e+03 9.985138267327032509e+02 7.216954938990343127e-01
1.461925174378246650e+00 2.173204291675063814e+03 1.123604753198446815e+03 7.488568253068009772e-01
1.538836532730420981e+00 2.350070922595734373e+03 1.258527823190543131e+03 7.760181567145676418e-01
1.615747891082595311e+00 2.533932680678712131e+03 1.403782343539703788e+03 8.031794881223341953e-01
1.692659249434769642e+00 2.724941283240476423e+03 1.555673762877852369e+03 7.878283278864873784e-01
1.769570607786943972e+00 2.922906631765442398e+03 1.709142989164422033e+03 7.634614276562247115e-01
1.846481966139118303e+00 3.127550140054787335e+03 1.862809804621088006e+03 7.390945274259619335e-01
1.923393324491292633e+00 3.338590592466941416e+03 2.016144312814802106e+03 7.147276271956991556e-01
2.000304682843466964e+00 3.555748512658622531e+03 2.168638371139630181e+03 6.903607269654363776e-01
2.077216041195641516e+00 3.778746805661733561e+03 2.319805861306052975e+03 6.659938267351735997e-01
