# density  energy_density  pressure   sound_speed_squared  [All in nuclear units]
2.720000000000000022e-14 2.529924618736292620e-11 1.061056609100270887e-19 3.766610435412189122e-08
1.269999999999999890e-13 1.181251617980081254e-10 4.870113551826584858e-18 6.497781477172163475e-08
6.929999999999999754e-13 6.445728594625782745e-10 1.018299070687946017e-16 3.033770597342807186e-07
6.295000000000000137e-12 5.855111460395753757e-09 5.487150723824490656e-15 1.763710043904196507e-06
1.581000000000000150e-11 1.470523320212576141e-08 2.904239460150760759e-14 3.559434472327477622e-06
3.971999999999999958e-11 3.694456170323160790e-08 1.439340266754906811e-13 6.772854871245677111e-06
9.975999999999999982e-11 9.278976412613005154e-08 6.812143616221268841e-13 1.246890511177539320e-05
2.505999999999999928e-10 2.330928829758143313e-07 3.107749196951638608e-12 2.212095130576091967e-05
6.294000000000000186e-10 5.854398883216247602e-07 1.363250409771533549e-11 3.761981047239428883e-05
1.581000000000000021e-09 1.470619631082054101e-06 5.726014178088476303e-11 6.095350986710739404e-05
3.971999999999999932e-09 3.694861084648016046e-06 2.210019573374265380e-10 8.628023653304385055e-05
5.000000000000000105e-09 4.651201787816927976e-06 3.071485916280120014e-10 9.387863480799757518e-05
9.975999999999999465e-09 9.280587964640925786e-06 8.385361004129998845e-10 1.356922228656245837e-04
1.989999999999999952e-08 1.851419242998081003e-05 2.287763168863418088e-09 1.782101978513718314e-04
3.972999999999999908e-08 3.696699295748789187e-05 6.061583099087538954e-09 2.308134738384234820e-04
7.925999999999999637e-08 7.375765469301719828e-05 1.575347858094044765e-08 2.960532096713864875e-04
1.580999999999999930e-07 1.471491184379128891e-04 3.910429618672550719e-08 3.402859755131850544e-04
1.991000000000000027e-07 1.853209783927820692e-04 5.252045687899177454e-08 3.626488188833278743e-04
3.155999999999999938e-07 2.938002528823880299e-04 9.730770378831954314e-08 4.630767356912104081e-04
5.000999999999999849e-07 4.656344063839075714e-04 1.837494945860225819e-07 5.430301232045120323e-04
6.295999999999999732e-07 5.862651417037388971e-04 2.503103884558263872e-07 5.605192962670089638e-04
9.666999999999999941e-07 9.003386739730535665e-04 4.324450868778576936e-07 5.993081670211623108e-04
1.531999999999999901e-06 1.427170885631398036e-03 7.780217275717420968e-07 7.125938556504039095e-04
2.506999999999999883e-06 2.336134972129507662e-03 1.471005394641589826e-06 8.121876172121876309e-04
3.974000000000000407e-06 3.704315759716615697e-03 2.695705763844323844e-06 9.780674166779417152e-04
4.830000000000000343e-06 4.502887798316278223e-03 3.503988717694660908e-06 1.046253037768318664e-03
6.080999999999999885e-06 5.670217999231269741e-03 4.731126407333307547e-06 1.056224360839501646e-03
7.930000000000000308e-06 7.396012414119570652e-03 6.599662989063778187e-06 1.109203753630785610e-03
9.982000000000000313e-06 9.311815711689977113e-03 8.879881089227186733e-06 1.271216815433141075e-03
1.256999999999999993e-05 1.172874412604260098e-02 1.207676739913533738e-05 1.374195438212825332e-03
1.521999999999999997e-05 1.420427250933824909e-02 1.547541302213394990e-05 1.371610497379100249e-03
1.991000000000000080e-05 1.858690797761085312e-02 2.160710455847765458e-05 1.426578142835871997e-03
2.506999999999999883e-05 2.341050104039446925e-02 2.908031724375689851e-05 1.672007475975408053e-03
2.790999999999999875e-05 2.606604784714952258e-02 3.357009132255487721e-05 1.709425557744154774e-03
3.806999999999999973e-05 3.556967988784798945e-02 4.986781576435106434e-05 1.720407281314112165e-03
5.063000000000000145e-05 4.732434580343149871e-02 7.073400252905581275e-05 1.829889149838781265e-03
6.592000000000000583e-05 6.164112392498975052e-02 9.765037643900635188e-05 1.930242980462695823e-03
8.433000000000000066e-05 7.888776783401378612e-02 1.317235490470395893e-04 2.021055815200022837e-03
1.062000000000000064e-04 9.938561165478684845e-02 1.740088341640037047e-04 2.104789529260958983e-03
1.321000000000000126e-04 1.236720406455826121e-01 2.260189757651373944e-04 2.178291718403657477e-03
1.623999999999999901e-04 1.520974545104751274e-01 2.888169908545388338e-04 2.240170365918073281e-03
1.689999999999999879e-04 1.582907717069566844e-01 3.027354772999506964e-04 2.254509350360745651e-03
1.758999999999999930e-04 1.647661861691531171e-01 3.173785841705756782e-04 2.268169273277113179e-03
1.830000000000000029e-04 1.714298948183871907e-01 3.325196584577469103e-04 2.276170334580628063e-03
1.901999999999999882e-04 1.781880600978280049e-01 3.479577791899843742e-04 2.292561569242367037e-03
1.977000000000000079e-04 1.852284385240466902e-01 3.641242634600037713e-04 2.299943765467868384e-03
2.054000000000000053e-04 1.924572004474696396e-01 3.808304060475003897e-04 2.322187632288155723e-03
2.079000000000000119e-04 1.948043378760714872e-01 3.864137987380476553e-04 2.435429768083530178e-03
2.081999999999999921e-04 1.950859988578999005e-01 3.870314100985603909e-04 1.950065624557156818e-03
2.090999999999999868e-04 1.959309855029948977e-01 3.881261957135444685e-04 6.411875526909013856e-04
2.159999999999999919e-04 2.024093317906446865e-01 3.940874488768042125e-04 1.199166870571831411e-03
2.231000000000000019e-04 2.090756740932291913e-01 4.013938420547467825e-04 9.928616047829054436e-04
2.311000000000000066e-04 2.165873044433437034e-01 4.085241694843774404e-04 9.056166966301716637e-04
2.401000000000000085e-04 2.250381721984245909e-01 4.159700687886608468e-04 8.565463878902855599e-04
2.500000000000000052e-04 2.343344406330727658e-01 4.237602369176299592e-04 8.194318812157330018e-04
2.642999999999999733e-04 2.477629128650125634e-01 4.345596643180389446e-04 7.890063723638815647e-04
3.052999999999999941e-04 2.862671839140227270e-01 4.644058706720978241e-04 7.612775562167708662e-04
3.533000000000000224e-04 3.313503829113090826e-01 4.987577676308450197e-04 7.626578558207241024e-04
4.075999999999999871e-04 3.823564017794535141e-01 5.381334366106255759e-04 7.813048116943254948e-04
4.679999999999999915e-04 4.390986251953180042e-01 5.832692638200615834e-04 8.096035963157804938e-04
5.341000000000000261e-04 5.012024644415256081e-01 6.346556894078133086e-04 8.452514814113673558e-04
6.059000000000000366e-04 5.686690698184251325e-01 6.930641302632923034e-04 8.862253587289389486e-04
7.661000000000000275e-04 7.192254882508629654e-01 8.328184776562496576e-04 9.702780530519144065e-04
1.262000000000000101e-03 1.185459127778160093e+00 1.338484980802662205e-03 1.198863597978450275e-03
1.894999999999999983e-03 1.780909071169781921e+00 2.123481960401060308e-03 1.437771491635827115e-03
2.673000000000000029e-03 2.513147344746868850e+00 3.261860252001994032e-03 1.671524566936786766e-03
3.605999999999999830e-03 3.391736073717691369e+00 4.828136641022434151e-03 1.893900408978071038e-03
4.709999999999999777e-03 4.431905410739045870e+00 6.903512974832482635e-03 2.096551352830673849e-03
7.496000000000000059e-03 7.058993649504918366e+00 1.289742191321638018e-02 2.466596387205546859e-03
1.119999999999999989e-02 1.055540362104863661e+01 2.212077014004794340e-02 2.809304433764861584e-03
1.600000000000000033e-02 1.509117352747679952e+01 3.559566804390756900e-02 3.132325055719984222e-03
2.206999999999999934e-02 2.083310616724802244e+01 5.457322122755020599e-02 3.477840948757840792e-03
2.947999999999999926e-02 2.785007348564149154e+01 8.049103664263126956e-02 3.909302116317729670e-03
4.268000000000000266e-02 4.036707211535221518e+01 1.353887601042819133e-01 4.862066536253286525e-03
6.219999999999999835e-02 5.891246509830522626e+01 2.419691225623893105e-01 6.630786177272363080e-03
7.316999999999999893e-02 6.935151695866235855e+01 3.161896974764099033e-01 7.588671314871411888e-03
7.595999999999999974e-02 7.200836722020332559e+01 3.371250777904805096e-01 8.170805199905812125e-03
7.685877551020407761e-02 7.286441686370011439e+01 3.442170103934379943e-01 8.398160288038872268e-03
7.775755102040816935e-02 7.372055062330181840e+01 3.515120054974804065e-01 8.643547214018991454e-03
7.865632653061224722e-02 7.457676996121058721e+01 3.590252253049447395e-01 8.906196131014771852e-03
7.955510204081632508e-02 7.543307647576106945e+01 3.667711796699055227e-01 9.185337192194826042e-03
8.045387755102040295e-02 7.628947188943571689e+01 3.747637260245646473e-01 9.480200550727759662e-03
8.135265306122449469e-02 7.714595803741428881e+01 3.830160693023328955e-01 9.790016359782187025e-03
8.225142857142857256e-02 7.800253685662909220e+01 3.915407618536065337e-01 1.011401477252671204e-02
8.315020408163265042e-02 7.885921037529720934e+01 4.003497033506749903e-01 1.045142594212994207e-02
8.404897959183672829e-02 7.971598070290455951e+01 4.094541406785895954e-01 1.080148002176048623e-02
8.494775510204082003e-02 8.057285002061695423e+01 4.188646678092002862e-01 1.116340716458696404e-02
8.584653061224489790e-02 8.142982057209547975e+01 4.285912256559079037e-01 1.153643752377796899e-02
8.674530612244897576e-02 8.228689465469531683e+01 4.386431019070070603e-01 1.191980125250211367e-02
8.764408163265305363e-02 8.314407461102689467e+01 4.490289308357897080e-01 1.231272850392801411e-02
8.854285714285714537e-02 8.400136282086187123e+01 4.597566930858655865e-01 1.271444943122427944e-02
8.944163265306122323e-02 8.485876169336459895e+01 4.708337154304141903e-01 1.312419418755950661e-02
9.034040816326530110e-02 8.571627365963428247e+01 4.822666705043324176e-01 1.354119292610231166e-02
9.123918367346939284e-02 8.657390116554017823e+01 4.940615765084668265e-01 1.396467580002130546e-02
9.213795918367347071e-02 8.743164666483654912e+01 5.062237968853385839e-01 1.439387296248509189e-02
9.303673469387754857e-02 8.828951261254327676e+01 5.187580399659713626e-01 1.482801456666228007e-02
9.393551020408162644e-02 8.914750145857802011e+01 5.316683585876179619e-01 1.526633076572148084e-02
9.483428571428570431e-02 9.000561564162862283e+01 5.449581496823636684e-01 1.570805171283130158e-02
9.573306122448979605e-02 9.086385758325421591e+01 5.586301538367498543e-01 1.615240756116035487e-02
9.663183673469387391e-02 9.172222968220238215e+01 5.726864548227171836e-01 1.659862846387724286e-02
9.753061224489795178e-02 9.258073430893499278e+01 5.871284791003213988e-01 1.704594457415058162e-02
9.842938775510204352e-02 9.343937380034944340e+01 6.019569952928068846e-01 1.749358604514898372e-02
9.932816326530612139e-02 9.429815045468862422e+01 6.171721136347598780e-01 1.794078303004103397e-02
1.002269387755101993e-01 9.515706652663027398e+01 6.327732853941898661e-01 1.838676568199536926e-02
1.011257142857142910e-01 9.601612422254625301e+01 6.487593022694974065e-01 1.883076415418058480e-02
1.020244897959183689e-01 9.687532569592588061e+01 6.651282957624047310e-01 1.927200859976528277e-02
1.029232653061224467e-01 9.773467304295404290e+01 6.818777365280309644e-01 1.970972917191808615e-02
1.038220408163265246e-01 9.859416829823895512e+01 6.990044337033866073e-01 2.014315602380759365e-02
1.047208163265306025e-01 9.945381343068078195e+01 7.165045342156646235e-01 2.057151930860242478e-02
1.056195918367346942e-01 1.003136103394772078e+02 7.343735220717910739e-01 2.099404917947117477e-02
1.065183673469387721e-01 1.011735608502581414e+02 7.526062176307821705e-01 2.140997578958246661e-02
1.074171428571428499e-01 1.020336667113447930e+02 7.711967768605425544e-01 2.181852929210489206e-02
1.083159183673469417e-01 1.028939295901277831e+02 7.901386905808057692e-01 2.221893984020707757e-02
1.092146938775510195e-01 1.037543510695592204e+02 8.094247836940010599e-01 2.261043758705761839e-02
1.101134693877550974e-01 1.046149326447537931e+02 8.290472144058984583e-01 2.299225268582513054e-02
1.110122448979591891e-01 1.054756757196940384e+02 8.489974734379448496e-01 2.336361528967822315e-02
1.119110204081632531e-01 1.063365816040367946e+02 8.692663832332736540e-01 2.372375555178548798e-02
1.128097959183673449e-01 1.071976515100146372e+02 8.898440971584353765e-01 2.407190362531556188e-02
1.137085714285714227e-01 1.080588865494310511e+02 9.107200987029355765e-01 2.440728966343703663e-02
1.146073469387755006e-01 1.089202877307430271e+02 9.318832006787517441e-01 2.472914381931852479e-02
1.155061224489795924e-01 1.097818559562300180e+02 9.533215444220243251e-01 2.503669624612863548e-02
1.164048979591836702e-01 1.106435920192435276e+02 9.750225989991867515e-01 2.532917709703597781e-02
1.173036734693877481e-01 1.115054966015369047e+02 9.969731604198446284e-01 2.560581652520915047e-02
1.182024489795918398e-01 1.123675702706699155e+02 1.019159350858753088e+00 2.586584468381678339e-02
1.191012244897959177e-01 1.132298134774869851e+02 1.041566617889295054e+00 2.610849172602746140e-02
1.199999999999999956e-01 1.140922265536654407e+02 1.064179733730904021e+00 2.633298780500981096e-02
1.232622345525560409e-01 1.172239122689136366e+02 1.147770704503862760e+00 2.705084373385910693e-02
1.265244691051120862e-01 1.203578416760836376e+02 1.233737598472542940e+00 2.781101071387320073e-02
1.297867036576681454e-01 1.234940199655831350e+02 1.322219947063382639e+00 2.861563933374005470e-02
1.330489382102241769e-01 1.266324556634937721e+02 1.413364391907801831e+00 2.946685395852208927e-02
1.363111727627802361e-01 1.297731605600311582e+02 1.507324647028330133e+00 3.036676185125292485e-02
1.395734073153362675e-01 1.329161496442933981e+02 1.604261489906180671e+00 3.131746154682848310e-02
1.428356418678923268e-01 1.360614410452137690e+02 1.704342779355339177e+00 3.232105050403388108e-02
1.460978764204483582e-01 1.392090559785980304e+02 1.807743498207710742e+00 3.337963206698359164e-02
1.493601109730044174e-01 1.423590187001009610e+02 1.914645818909102903e+00 3.449532177038724945e-02
1.526223455255604489e-01 1.455113564639734705e+02 2.025239190230093467e+00 3.567025302445970408e-02
1.558845800781165081e-01 1.486660994873967923e+02 2.139720443404454553e+00 3.690658221544257378e-02
1.591468146306725395e-01 1.518232809202094700e+02 2.258293916117005029e+00 3.820649325696420795e-02
1.624090491832285987e-01 1.549829368198246584e+02 2.381171592870165998e+00 3.957220162610069342e-02
1.656712837357846579e-01 1.581451061311327635e+02 2.508573260362227941e+00 4.100595791629556286e-02
1.689335182883406894e-01 1.613098306711802365e+02 2.640726676609189916e+00 4.251005093715551353e-02
1.721957528408967208e-01 1.644771551184178975e+02 2.777867752635402532e+00 4.408681038924935208e-02
1.754579873934527801e-01 1.676471270063144345e+02 2.920240745645750646e+00 4.573860913966512620e-02
1.787202219460088393e-01 1.708197967211310981e+02 3.068098462673390703e+00 4.746786512207586822e-02
1.819824564985648707e-01 1.739952175036636106e+02 3.221702473772440900e+00 4.927704288296559654e-02
1.852446910511209022e-01 1.771734454547559778e+02 3.381323333894466820e+00 5.116865479371226350e-02
1.885069256036769614e-01 1.803545395444023995e+02 3.547240812651437203e+00 5.314526194638162504e-02
1.917691601562330206e-01 1.835385616242541289e+02 3.719744131226386141e+00 5.520947474939916222e-02
1.950313947087890520e-01 1.867255764433596141e+02 3.899132205746306035e+00 5.736395323749220176e-02
1.982936292613451112e-01 1.899156516669700636e+02 4.085713896481031782e+00 5.961140710942691018e-02
2.015558638139011705e-01 1.931088578982474360e+02 4.279808262276213249e+00 6.195459550479729544e-02
2.048180983664572019e-01 1.963052687027212357e+02 4.481744819668876723e+00 6.439632653088402103e-02
2.080803329190132334e-01 1.995049606353462082e+02 4.691863806171402196e+00 6.693945654898092457e-02
2.113425674715692926e-01 2.027080132700180854e+02 4.910516447243185034e+00 6.958688922883118910e-02
2.146048020241253518e-01 2.059145092314100509e+02 5.138065226499979765e+00 7.234157437895917531e-02
2.178670365766813832e-01 2.091245342290007727e+02 5.374884158738828077e+00 7.520650655996133360e-02
2.211292711292374147e-01 2.123381770931691506e+02 5.621359065381954956e+00 7.818472348719565646e-02
2.243915056817934739e-01 2.155555298132354949e+02 5.877887851966253407e+00 8.127930422877803485e-02
2.276537402343495331e-01 2.187766875773339450e+02 6.144880787326266081e+00 8.449336720435035586e-02
2.309159747869055646e-01 2.220017488140101420e+02 6.422760784138052514e+00 8.783006798972321783e-02
2.341782093394615960e-01 2.252308152354343633e+02 6.711963680509212438e+00 9.129259693220968808e-02
2.374404438920176552e-01 2.284639918821345930e+02 7.012938522316814804e+00 9.488417658125139487e-02
2.407026784445737144e-01 2.317013871691509053e+02 7.326147846010207410e+00 9.860805893878853146e-02
2.439649129971297459e-01 2.349431129335195010e+02 7.652067961609819946e+00 1.024675225337389056e-01
2.472271475496858051e-01 2.381892844829999660e+02 7.991189235646177558e+00 1.064658693249186661e-01
2.504893821022418088e-01 2.414400206459590379e+02 8.344016373795597019e+00 1.106064214367608739e-01
2.537516166547978957e-01 2.446954438223320381e+02 8.711068702980696798e+00 1.148925177322611541e-01
2.570138512073539272e-01 2.479556800355835549e+02 9.092880452714487305e+00 1.193275102276925292e-01
2.602760857599100142e-01 2.512208589855935372e+02 9.490001035477488855e+00 1.239147603537965325e-01
2.635383203124660456e-01 2.544911141023964092e+02 9.902995325926719161e+00 1.286576350683482084e-01
2.668005548650220771e-01 2.577665826007063288e+02 1.033244393874527667e+01 1.335595028252320737e-01
2.700627894175781085e-01 2.610474055351617153e+02 1.077894350494991649e+01 1.386237294054226410e-01
2.733250239701341400e-01 2.643337278562268580e+02 1.124310694648308662e+01 1.438536736155621443e-01
2.765872585226902269e-01 2.676256984666886751e+02 1.172556374892428366e+01 1.492526828601412059e-01
2.798494930752462584e-01 2.709234702786920366e+02 1.222696023216392014e+01 1.548240885936293942e-01
3.557709319920779878e-01 3.496888380884763592e+02 2.884527323326038584e+01 2.642207042632569447e-01
4.316923709089096617e-01 4.329717073324378589e+02 5.556744955569934774e+01 3.736173199328843841e-01
5.076138098257413356e-01 5.218767690363686143e+02 9.385890549818907402e+01 4.830139356025118791e-01
5.835352487425731205e-01 6.174163484985190280e+02 1.455013258083910159e+02 5.924105512721395961e-01
6.594566876594047944e-01 7.205891418116010527e+02 2.126023086795491110e+02 7.018071669417670355e-01
7.353781265762364683e-01 8.323941661534444165e+02 2.951000942771289601e+02 7.697015949782635147e-01
8.112995654930681422e-01 9.533688085780324855e+02 3.856671161406283659e+02 7.305070671554851902e-01
8.872210044098998161e-01 1.082900705422049896e+03 4.775931123817220509e+02 6.913125393327068657e-01
9.631424433267314900e-01 1.220324030514818332e+03 5.697593358997719406e+02 6.521180115099285413e-01
1.039063882243563164e+00 1.364993419416173992e+03 6.611381148228033453e+02 6.129234836871501058e-01
1.114985321160395060e+00 1.516286081815157559e+03 7.507909656209973264e+02 5.737289558643716703e-01
1.190906760077226734e+00 1.673603176199059135e+03 8.378658616322738908e+02 5.345344280415933458e-01
1.266828198994058408e+00 1.836370638540688105e+03 9.215939366838539399e+02 4.953399002188149658e-01
1.342749637910890081e+00 2.004039601642645493e+03 1.001285821838089987e+03 4.561453723960366413e-01
1.418671076827721755e+00 2.176095833914559535e+03 1.076910457604882595e+03 4.235692916340318415e-01
1.494592515744553429e+00 2.352119831900288318e+03 1.150107904512390633e+03 4.084040818251813421e-01
1.570513954661385103e+00 2.531834136550637595e+03 1.222117348045462222e+03 3.932388720163308427e-01
1.646435393578216777e+00 2.714997777887492248e+03 1.292733731525169787e+03 3.780736622074803432e-01
1.722356832495048451e+00 2.901382934638574625e+03 1.361767855041881376e+03 3.629084523986297883e-01
1.798278271411880125e+00 3.090773866737157732e+03 1.429045195029529850e+03 3.477432425897792889e-01
1.874199710328712021e+00 3.282965981194332926e+03 1.494404850857664314e+03 3.325780327809287340e-01
1.950121149245543695e+00 3.477765009030844340e+03 1.557698598886325044e+03 3.174128229720782346e-01
2.026042588162375591e+00 3.674986275491471588e+03 1.618790038247936081e+03 3.022476131632276797e-01
2.101964027079207042e+00 3.874454049235284856e+03 1.677553815561738247e+03 2.870824033543772358e-01
