# density  energy_density  pressure   sound_speed_squared  [All in nuclear units]
2.720000000000000022e-14 2.529924618736292620e-11 1.061056609100270887e-19 3.766610435412189122e-08
1.269999999999999890e-13 1.181251617980081254e-10 4.870113551826584858e-18 6.497781477172163475e-08
6.929999999999999754e-13 6.445728594625782745e-10 1.018299070687946017e-16 3.033770597342807186e-07
6.295000000000000137e-12 5.855111460395753757e-09 5.487150723824490656e-15 1.763710043904196507e-06
1.581000000000000150e-11 1.470523320212576141e-08 2.904239460150760759e-14 3.559434472327477622e-06
3.971999999999999958e-11 3.694456170323160790e-08 1.439340266754906811e-13 6.772854871245677111e-06
9.975999999999999982e-11 9.278976412613005154e-08 6.812143616221268841e-13 1.246890511177539320e-05
2.505999999999999928e-10 2.330928829758143313e-07 3.107749196951638608e-12 2.212095130576091967e-05
6.294000000000000186e-10 5.854398883216247602e-07 1.363250409771533549e-11 3.761981047239428883e-05
1.581000000000000021e-09 1.470619631082054101e-06 5.726014178088476303e-11 6.095350986710739404e-05
3.971999999999999932e-09 3.694861084648016046e-06 2.210019573374265380e-10 8.628023653304385055e-05
5.000000000000000105e-09 4.651201787816927976e-06 3.071485916280120014e-10 9.387863480799757518e-05
9.975999999999999465e-09 9.280587964640925786e-06 8.385361004129998845e-10 1.356922228656245837e-04
1.989999999999999952e-08 1.851419242998081003e-05 2.287763168863418088e-09 1.782101978513718314e-04
3.972999999999999908e-08 3.696699295748789187e-05 6.061583099087538954e-09 2.308134738384234820e-04
7.925999999999999637e-08 7.375765469301719828e-05 1.575347858094044765e-08 2.960532096713864875e-04
1.580999999999999930e-07 1.471491184379128891e-04 3.910429618672550719e-08 3.402859755131850544e-04
1.991000000000000027e-07 1.853209783927820692e-04 5.252045687899177454e-08 3.626488188833278743e-04
3.155999999999999938e-07 2.938002528823880299e-04 9.730770378831954314e-08 4.630767356912104081e-04
5.000999999999999849e-07 4.656344063839075714e-04 1.837494945860225819e-07 5.430301232045120323e-04
6.295999999999999732e-07 5.862651417037388971e-04 2.503103884558263872e-07 5.605192962670089638e-04
9.666999999999999941e-07 9.003386739730535665e-04 4.324450868778576936e-07 5.993081670211623108e-04
1.531999999999999901e-06 1.427170885631398036e-03 7.780217275717420968e-07 7.125938556504039095e-04
2.506999999999999883e-06 2.336134972129507662e-03 1.471005394641589826e-06 8.121876172121876309e-04
3.974000000000000407e-06 3.704315759716615697e-03 2.695705763844323844e-06 9.780674166779417152e-04
4.830000000000000343e-06 4.502887798316278223e-03 3.503988717694660908e-06 1.046253037768318664e-03
6.080999999999999885e-06 5.670217999231269741e-03 4.731126407333307547e-06 1.056224360839501646e-03
7.930000000000000308e-06 7.396012414119570652e-03 6.599662989063778187e-06 1.109203753630785610e-03
9.982000000000000313e-06 9.311815711689977113e-03 8.879881089227186733e-06 1.271216815433141075e-03
1.256999999999999993e-05 1.172874412604260098e-02 1.207676739913533738e-05 1.374195438212825332e-03
1.521999999999999997e-05 1.420427250933824909e-02 1.547541302213394990e-05 1.371610497379100249e-03
1.991000000000000080e-05 1.858690797761085312e-02 2.160710455847765458e-05 1.426578142835871997e-03
2.506999999999999883e-05 2.341050104039446925e-02 2.908031724375689851e-05 1.672007475975408053e-03
2.790999999999999875e-05 2.606604784714952258e-02 3.357009132255487721e-05 1.709425557744154774e-03
3.806999999999999973e-05 3.556967988784798945e-02 4.986781576435106434e-05 1.720407281314112165e-03
5.063000000000000145e-05 4.732434580343149871e-02 7.073400252905581275e-05 1.829889149838781265e-03
6.592000000000000583e-05 6.164112392498975052e-02 9.765037643900635188e-05 1.930242980462695823e-03
8.433000000000000066e-05 7.888776783401378612e-02 1.317235490470395893e-04 2.021055815200022837e-03
1.062000000000000064e-04 9.938561165478684845e-02 1.740088341640037047e-04 2.104789529260958983e-03
1.321000000000000126e-04 1.236720406455826121e-01 2.260189757651373944e-04 2.178291718403657477e-03
1.623999999999999901e-04 1.520974545104751274e-01 2.888169908545388338e-04 2.240170365918073281e-03
1.689999999999999879e-04 1.582907717069566844e-01 3.027354772999506964e-04 2.254509350360745651e-03
1.758999999999999930e-04 1.647661861691531171e-01 3.173785841705756782e-04 2.268169273277113179e-03
1.830000000000000029e-04 1.714298948183871907e-01 3.325196584577469103e-04 2.276170334580628063e-03
1.901999999999999882e-04 1.781880600978280049e-01 3.479577791899843742e-04 2.292561569242367037e-03
1.977000000000000079e-04 1.852284385240466902e-01 3.641242634600037713e-04 2.299943765467868384e-03
2.054000000000000053e-04 1.924572004474696396e-01 3.808304060475003897e-04 2.322187632288155723e-03
2.079000000000000119e-04 1.948043378760714872e-01 3.864137987380476553e-04 2.435429768083530178e-03
2.081999999999999921e-04 1.950859988578999005e-01 3.870314100985603909e-04 1.950065624557156818e-03
2.090999999999999868e-04 1.959309855029948977e-01 3.881261957135444685e-04 6.411875526909013856e-04
2.159999999999999919e-04 2.024093317906446865e-01 3.940874488768042125e-04 1.199166870571831411e-03
2.231000000000000019e-04 2.090756740932291913e-01 4.013938420547467825e-04 9.928616047829054436e-04
2.311000000000000066e-04 2.165873044433437034e-01 4.085241694843774404e-04 9.056166966301716637e-04
2.401000000000000085e-04 2.250381721984245909e-01 4.159700687886608468e-04 8.565463878902855599e-04
2.500000000000000052e-04 2.343344406330727658e-01 4.237602369176299592e-04 8.194318812157330018e-04
2.642999999999999733e-04 2.477629128650125634e-01 4.345596643180389446e-04 7.890063723638815647e-04
3.052999999999999941e-04 2.862671839140227270e-01 4.644058706720978241e-04 7.612775562167708662e-04
3.533000000000000224e-04 3.313503829113090826e-01 4.987577676308450197e-04 7.626578558207241024e-04
4.075999999999999871e-04 3.823564017794535141e-01 5.381334366106255759e-04 7.813048116943254948e-04
4.679999999999999915e-04 4.390986251953180042e-01 5.832692638200615834e-04 8.096035963157804938e-04
5.341000000000000261e-04 5.012024644415256081e-01 6.346556894078133086e-04 8.452514814113673558e-04
6.059000000000000366e-04 5.686690698184251325e-01 6.930641302632923034e-04 8.862253587289389486e-04
7.661000000000000275e-04 7.192254882508629654e-01 8.328184776562496576e-04 9.702780530519144065e-04
1.262000000000000101e-03 1.185459127778160093e+00 1.338484980802662205e-03 1.198863597978450275e-03
1.894999999999999983e-03 1.780909071169781921e+00 2.123481960401060308e-03 1.437771491635827115e-03
2.673000000000000029e-03 2.513147344746868850e+00 3.261860252001994032e-03 1.671524566936786766e-03
3.605999999999999830e-03 3.391736073717691369e+00 4.828136641022434151e-03 1.893900408978071038e-03
4.709999999999999777e-03 4.431905410739045870e+00 6.903512974832482635e-03 2.096551352830673849e-03
7.496000000000000059e-03 7.058993649504918366e+00 1.289742191321638018e-02 2.466596387205546859e-03
1.119999999999999989e-02 1.055540362104863661e+01 2.212077014004794340e-02 2.809304433764861584e-03
1.600000000000000033e-02 1.509117352747679952e+01 3.559566804390756900e-02 3.132325055719984222e-03
2.206999999999999934e-02 2.083310616724802244e+01 5.457322122755020599e-02 3.477840948757840792e-03
2.947999999999999926e-02 2.785007348564149154e+01 8.049103664263126956e-02 3.909302116317729670e-03
4.268000000000000266e-02 4.036707211535221518e+01 1.353887601042819133e-01 4.862066536253286525e-03
6.219999999999999835e-02 5.891246509830522626e+01 2.419691225623893105e-01 6.630786177272363080e-03
7.316999999999999893e-02 6.935151695866235855e+01 3.161896974764099033e-01 7.588671314871411888e-03
7.595999999999999974e-02 7.200836722020332559e+01 3.371250777904805096e-01 8.170805199905812125e-03
7.685877551020407761e-02 7.286441679962877060e+01 3.442060454891346377e-01 8.372545345587496454e-03
7.775755102040816935e-02 7.372055019836628276e+01 3.514610672504560607e-01 8.575790374922303075e-03
7.865632653061224722e-02 7.457676846746332444e+01 3.588915344600570601e-01 8.780679991133896745e-03
7.955510204081632508e-02 7.543307265053192623e+01 3.664989591105153321e-01 8.987353897445968243e-03
8.045387755102040295e-02 7.628946378536390682e+01 3.742849738684116412e-01 9.195951797082196205e-03
8.135265306122449469e-02 7.714594290547437083e+01 3.822513321437175371e-01 9.406613393266264472e-03
8.225142857142857256e-02 7.800251104157797499e+01 3.903999081615092126e-01 9.619478389221844741e-03
8.315020408163265042e-02 7.885916922300152976e+01 3.987326970359961753e-01 9.834686488172620852e-03
8.404897959183672829e-02 7.971591847903597738e+01 4.072518148468544097e-01 1.005237739334227144e-02
8.494775510204082003e-02 8.057275984023186766e+01 4.159594987178668046e-01 1.027269080795448555e-02
8.584653061224489790e-02 8.142969433964013604e+01 4.248581068978753983e-01 1.049576643523292795e-02
8.674530612244897576e-02 8.228672301400287381e+01 4.339501188440599844e-01 1.072174397840128766e-02
8.764408163265305363e-02 8.314384690489433183e+01 4.432381353075586783e-01 1.095076314068324681e-02
8.854285714285714537e-02 8.400106705981703215e+01 4.527248784214554234e-01 1.118296362530248576e-02
8.944163265306122323e-02 8.485838453325358444e+01 4.624131917911612488e-01 1.141848513548267448e-02
9.034040816326530110e-02 8.571580038767770304e+01 4.723060405872239742e-01 1.165746737444750200e-02
9.123918367346939284e-02 8.657331569452554731e+01 4.824065116406009990e-01 1.190005004542064523e-02
9.213795918367347071e-02 8.743093153512968740e+01 4.927178135404371995e-01 1.214637285162578628e-02
9.303673469387754857e-02 8.828864900161791240e+01 5.032432767343943958e-01 1.239657549628660378e-02
9.393551020408162644e-02 8.914646919777818823e+01 5.139863536315778525e-01 1.265079768262677463e-02
9.483428571428570431e-02 9.000439323989114371e+01 5.249506187081138808e-01 1.290917911386998441e-02
9.573306122448979605e-02 9.086242225753269963e+01 5.361397686154329989e-01 1.317185949323991696e-02
9.663183673469387391e-02 9.172055739434675559e+01 5.475576222913154378e-01 1.343897852396023704e-02
9.753061224489795178e-02 9.257879980879076243e+01 5.592081210737628316e-01 1.371067590925463889e-02
9.842938775510204352e-02 9.343715067485504733e+01 5.710953288177560427e-01 1.398709135234680115e-02
9.932816326530612139e-02 9.429561118275610454e+01 5.832234320149667361e-01 1.426836455646039552e-02
1.002269387755101993e-01 9.515418253960649508e+01 5.955967399164925347e-01 1.455463522481910757e-02
1.011257142857142910e-01 9.601286597006193801e+01 6.082196846586843675e-01 1.484604306064662288e-02
1.020244897959183689e-01 9.687166271694631803e+01 6.210968213921388426e-01 1.514272776716660621e-02
1.029232653061224467e-01 9.773057404185546204e+01 6.342328284139336914e-01 1.544482904760274833e-02
1.038220408163265246e-01 9.858960122574167428e+01 6.476325073031788948e-01 1.575248660517872962e-02
1.047208163265306025e-01 9.944874556947881672e+01 6.613007830599654246e-01 1.606584014311823044e-02
1.056195918367346942e-01 1.003080083944091854e+02 6.752427042477914254e-01 1.638502936464492771e-02
1.065183673469387721e-01 1.011673910428731205e+02 6.894634431395462171e-01 1.671019397298250178e-02
1.074171428571428499e-01 1.020268948787219472e+02 7.039682958671404922e-01 1.704147367135463303e-02
1.083159183673469417e-01 1.028865212878151709e+02 7.187626825748626436e-01 1.737900816298500531e-02
1.092146938775510195e-01 1.037462716785018415e+02 7.338521475765513724e-01 1.772293715109729204e-02
1.101134693877550974e-01 1.046061474820884882e+02 7.492423595166743944e-01 1.807340033891517705e-02
1.110122448979591891e-01 1.054661501532918066e+02 7.649391115353986192e-01 1.843053742966234421e-02
1.119110204081632531e-01 1.063262811706791524e+02 7.809483214377455074e-01 1.879448812656245998e-02
1.128097959183673449e-01 1.071865420370956201e+02 7.972760318669270818e-01 1.916539213283922211e-02
1.137085714285714227e-01 1.080469342800791281e+02 8.139284104819467514e-01 1.954338915171629359e-02
1.146073469387755006e-01 1.089074594522636659e+02 8.309117501395724137e-01 1.992861888641736870e-02
1.155061224489795924e-01 1.097681191317715275e+02 8.482324690807666601e-01 2.032122104016613473e-02
1.164048979591836702e-01 1.106289149225945465e+02 8.658971111216764438e-01 2.072133531618623736e-02
1.173036734693877481e-01 1.114898484549653830e+02 8.839123458492817997e-01 2.112910141770138472e-02
1.182024489795918398e-01 1.123509213857187774e+02 9.022849688217977615e-01 2.154465904793526065e-02
1.191012244897959177e-01 1.132121353986431700e+02 9.210219017739327274e-01 2.196814791011152818e-02
1.199999999999999956e-01 1.140734922048233813e+02 9.401301928271064146e-01 2.239970770745386766e-02
1.236889039939524926e-01 1.176103641484411213e+02 1.022591962405859922e+00 2.422948833920537601e-02
1.273778079879049896e-01 1.211497924074347452e+02 1.111602697069957735e+00 2.606658072340619497e-02
1.310667119818574866e-01 1.246918930415090472e+02 1.207189960509485793e+00 2.790486753495537500e-02
1.347556159758100114e-01 1.282367760577542981e+02 1.309360223965282177e+00 2.973828435226438457e-02
1.384445199697625084e-01 1.317845453312230291e+02 1.418098937026587070e+00 3.156081827176536458e-02
1.421334239637150054e-01 1.353352985357091143e+02 1.533370587214153646e+00 3.336650626095075817e-02
1.458223279576675024e-01 1.388891270831132658e+02 1.655118748343272550e+00 3.514943328614669044e-02
1.495112319516199995e-01 1.424461160700244875e+02 1.783266117763747216e+00 3.690373024740319780e-02
1.532001359455725242e-01 1.460063442303553813e+02 1.917714542664189947e+00 3.862357174950080407e-02
1.568890399395250212e-01 1.495698838930416912e+02 2.058345035707865200e+00 4.030317373504908873e-02
1.605779439334775183e-01 1.531368009439630669e+02 2.205017780338163202e+00 4.193679100294765705e-02
1.642668479274300153e-01 1.567071547913669463e+02 2.357572126154801051e+00 4.351871463304883558e-02
1.679557519213825123e-01 1.602809983341850000e+02 2.515826574818235351e+00 4.504326933567701086e-02
1.716446559153350093e-01 1.638583779327203160e+02 2.679578756990304012e+00 4.650481074269922910e-02
1.753335599092875063e-01 1.674393333812646461e+02 2.848605400864731685e+00 4.789772265508376869e-02
1.790224639032400034e-01 1.710238978822709157e+02 3.022662292882524859e+00 4.921641426031531791e-02
1.827113678971925004e-01 1.746120980217681620e+02 3.201484231265093516e+00 5.045531733164199117e-02
1.864002718911450251e-01 1.782039537457504821e+02 3.384784973032796351e+00 5.160888341990056694e-02
1.900891758850975222e-01 1.817994783373269172e+02 3.572257175209023750e+00 5.267158104759268183e-02
1.937780798790500192e-01 1.853986783944486092e+02 3.763572330940462507e+00 5.363789291395615333e-02
1.974669838730025440e-01 1.890015538080694171e+02 3.958380701293163551e+00 5.450231311898651176e-02
2.011558878669550410e-01 1.926080977406269596e+02 4.156311243512065268e+00 5.525934441370398270e-02
2.048447918609075380e-01 1.962182966047567731e+02 4.356971536558939206e+00 5.590349548342804509e-02
2.085336958548600350e-01 1.998321300421748390e+02 4.559947704770726418e+00 5.642927827041108874e-02
2.122225998488125320e-01 2.034495709026923294e+02 4.764804340507343916e+00 5.683120534185676781e-02
2.159115038427650290e-01 2.070705852233356552e+02 4.971084426685397517e+00 5.710378730918255763e-02
2.196004078367175261e-01 2.106951322075740336e+02 5.178309260122324176e+00 5.724153030426325922e-02
2.232893118306700231e-01 2.143231642046629304e+02 5.385978376644386501e+00 5.723893351839813570e-02
2.269782158246225201e-01 2.179546266891326525e+02 5.593569478941978979e+00 5.709048680982994894e-02
2.306671198185750171e-01 2.215894582404633866e+02 5.800538368187072358e+00 5.679066838581298821e-02
2.343560238125275419e-01 2.252275905229989519e+02 6.006318880460503884e+00 5.633394256547452628e-02
2.380449278064800389e-01 2.288689482661662566e+02 6.210322829071325046e+00 5.571475763003474330e-02
2.417338318004325359e-01 2.325134492450749519e+02 6.411939953886763632e+00 5.492754376733431643e-02
2.454227357943850329e-01 2.361610042615851626e+02 6.610537878829742198e+00 5.396671111818913957e-02
2.491116397883375300e-01 2.398115171259394742e+02 6.805462078739927811e+00 5.282664793173395129e-02
2.528005437822900547e-01 2.434648846390649339e+02 6.996035856838354938e+00 5.150171884000282613e-02
2.564894477762425518e-01 2.471209965756601150e+02 7.181560334078600505e+00 4.998626325837281226e-02
2.601783517701950488e-01 2.507797356681926431e+02 7.361314451712310358e+00 4.827459392327408672e-02
2.638672557641475458e-01 2.544409775919375818e+02 7.534554988446451773e+00 4.636099557671594790e-02
2.675561597581000428e-01 2.581045909511996115e+02 7.700516593617879657e+00 4.423972380863225307e-02
2.712450637520525398e-01 2.617704372668685551e+02 7.858411837861599025e+00 4.190500406855910548e-02
2.749339677460050924e-01 2.654383709654628092e+02 8.007431282800768102e+00 3.935103085876599099e-02
2.786228717399575894e-01 2.691082393698328588e+02 8.146743571338783241e+00 3.657196712152874923e-02
2.823117757339100864e-01 2.727798826916926487e+02 8.275495540186355470e+00 3.356194383374500045e-02
2.860006797278625834e-01 2.764531340261634682e+02 8.392812356308537503e+00 3.031505982252846038e-02
2.896895837218150804e-01 2.801278193485222232e+02 8.497797679027845774e+00 2.682538181574941477e-02
2.933784877157675774e-01 2.838037575133500354e+02 8.589533849568837809e+00 2.308694474169195598e-02
2.970673917097200745e-01 2.874807602562859188e+02 8.667082109876007578e+00 1.909375229204260740e-02
3.007562957036725715e-01 2.911586321986025609e+02 8.729482852579570462e+00 1.483977776226940576e-02
3.762510651791078353e-01 3.672771570397764549e+02 1.674148544418529738e+01 1.934622794244680588e-01
4.517458346545430992e-01 4.462497577774078081e+02 3.929088378564657091e+01 3.720847810866667049e-01
5.272406041299783075e-01 5.301836789149717788e+02 7.838098647504406813e+01 5.507072827488651567e-01
6.027353736054135158e-01 6.209225571988703223e+02 1.369934040094399279e+02 7.293297844110637751e-01
6.782301430808488352e-01 7.202259035338131525e+02 2.141013868274465608e+02 8.170998307216303935e-01
7.537249125562840435e-01 8.289169564860089849e+02 3.009877554056819804e+02 7.845747138930984077e-01
8.292196820317193628e-01 9.464949572522585868e+02 3.911789702718859871e+02 7.520495970645663109e-01
9.047144515071545712e-01 1.072405271037743205e+03 4.836885804160380076e+02 7.195244802360343250e-01
9.802092209825897795e-01 1.206106182496060455e+03 5.775931942844688365e+02 6.869993634075022282e-01
1.055703990458025210e+00 1.347090952208501903e+03 6.736387774177680967e+02 6.761842192968747778e-01
1.131198759933460307e+00 1.495133415535342237e+03 7.798409800647484644e+02 7.554055197566281743e-01
1.206693529408895404e+00 1.650820742968756349e+03 9.038868039037585049e+02 8.346268202163816818e-01
1.282188298884330724e+00 1.814528565864959546e+03 1.012397493991065289e+03 5.023908175572767698e-01
1.357683068359766043e+00 1.982762059023817528e+03 1.064038297545919249e+03 1.160405095963747968e-01
1.433177837835201363e+00 2.152536952722995920e+03 1.076530273697065923e+03 3.130274937787993345e-02
1.508672607310636682e+00 2.322768864144398776e+03 1.081781498552033099e+03 3.039336306317744901e-02
1.584167376786072001e+00 2.493260038888724921e+03 1.086885688861814742e+03 2.948397674847496458e-02
1.659662146261506876e+00 2.663991075127808926e+03 1.091841808588042113e+03 2.857459043377248709e-02
1.735156915736942196e+00 2.834944293155450850e+03 1.096648923262589506e+03 2.766520411907000612e-02
1.810651685212377515e+00 3.006103514460131919e+03 1.101306187668503981e+03 2.675581780436752516e-02
1.886146454687812835e+00 3.177453877228635974e+03 1.105812835493831017e+03 2.584643148966504073e-02
1.961641224163248154e+00 3.348981681048026076e+03 1.110168170573206453e+03 2.493704517496255976e-02
2.037135993638683473e+00 3.520674255233723215e+03 1.114371559419568712e+03 2.402765886026007533e-02
2.112630763114118349e+00 3.692519846442729431e+03 1.118422424813380530e+03 2.311827254555760131e-02
