# density  energy_density  pressure   sound_speed_squared  [All in nuclear units]
2.720000000000000022e-14 2.529924618736292620e-11 1.061056609100270887e-19 3.766610435412189122e-08
1.269999999999999890e-13 1.181251617980081254e-10 4.870113551826584858e-18 6.497781477172163475e-08
6.929999999999999754e-13 6.445728594625782745e-10 1.018299070687946017e-16 3.033770597342807186e-07
6.295000000000000137e-12 5.855111460395753757e-09 5.487150723824490656e-15 1.763710043904196507e-06
1.581000000000000150e-11 1.470523320212576141e-08 2.904239460150760759e-14 3.559434472327477622e-06
3.971999999999999958e-11 3.694456170323160790e-08 1.439340266754906811e-13 6.772854871245677111e-06
9.975999999999999982e-11 9.278976412613005154e-08 6.812143616221268841e-13 1.246890511177539320e-05
2.505999999999999928e-10 2.330928829758143313e-07 3.107749196951638608e-12 2.212095130576091967e-05
6.294000000000000186e-10 5.854398883216247602e-07 1.363250409771533549e-11 3.761981047239428883e-05
1.581000000000000021e-09 1.470619631082054101e-06 5.726014178088476303e-11 6.095350986710739404e-05
3.971999999999999932e-09 3.694861084648016046e-06 2.210019573374265380e-10 8.628023653304385055e-05
5.000000000000000105e-09 4.651201787816927976e-06 3.071485916280120014e-10 9.387863480799757518e-05
9.975999999999999465e-09 9.280587964640925786e-06 8.385361004129998845e-10 1.356922228656245837e-04
1.989999999999999952e-08 1.851419242998081003e-05 2.287763168863418088e-09 1.782101978513718314e-04
3.972999999999999908e-08 3.696699295748789187e-05 6.061583099087538954e-09 2.308134738384234820e-04
7.925999999999999637e-08 7.375765469301719828e-05 1.575347858094044765e-08 2.960532096713864875e-04
1.580999999999999930e-07 1.471491184379128891e-04 3.910429618672550719e-08 3.402859755131850544e-04
1.991000000000000027e-07 1.853209783927820692e-04 5.252045687899177454e-08 3.626488188833278743e-04
3.155999999999999938e-07 2.938002528823880299e-04 9.730770378831954314e-08 4.630767356912104081e-04
5.000999999999999849e-07 4.656344063839075714e-04 1.837494945860225819e-07 5.430301232045120323e-04
6.295999999999999732e-07 5.862651417037388971e-04 2.503103884558263872e-07 5.605192962670089638e-04
9.666999999999999941e-07 9.003386739730535665e-04 4.324450868778576936e-07 5.993081670211623108e-04
1.531999999999999901e-06 1.427170885631398036e-03 7.780217275717420968e-07 7.125938556504039095e-04
2.506999999999999883e-06 2.336134972129507662e-03 1.471005394641589826e-06 8.121876172121876309e-04
3.974000000000000407e-06 3.704315759716615697e-03 2.695705763844323844e-06 9.780674166779417152e-04
4.830000000000000343e-06 4.502887798316278223e-03 3.503988717694660908e-06 1.046253037768318664e-03
6.080999999999999885e-06 5.670217999231269741e-03 4.731126407333307547e-06 1.056224360839501646e-03
7.930000000000000308e-06 7.396012414119570652e-03 6.599662989063778187e-06 1.109203753630785610e-03
9.982000000000000313e-06 9.311815711689977113e-03 8.879881089227186733e-06 1.271216815433141075e-03
1.256999999999999993e-05 1.172874412604260098e-02 1.207676739913533738e-05 1.374195438212825332e-03
1.521999999999999997e-05 1.420427250933824909e-02 1.547541302213394990e-05 1.371610497379100249e-03
1.991000000000000080e-05 1.858690797761085312e-02 2.160710455847765458e-05 1.426578142835871997e-03
2.506999999999999883e-05 2.341050104039446925e-02 2.908031724375689851e-05 1.672007475975408053e-03
2.790999999999999875e-05 2.606604784714952258e-02 3.357009132255487721e-05 1.709425557744154774e-03
3.806999999999999973e-05 3.556967988784798945e-02 4.986781576435106434e-05 1.720407281314112165e-03
5.063000000000000145e-05 4.732434580343149871e-02 7.073400252905581275e-05 1.829889149838781265e-03
6.592000000000000583e-05 6.164112392498975052e-02 9.765037643900635188e-05 1.930242980462695823e-03
8.433000000000000066e-05 7.888776783401378612e-02 1.317235490470395893e-04 2.021055815200022837e-03
1.062000000000000064e-04 9.938561165478684845e-02 1.740088341640037047e-04 2.104789529260958983e-03
1.321000000000000126e-04 1.236720406455826121e-01 2.260189757651373944e-04 2.178291718403657477e-03
1.623999999999999901e-04 1.520974545104751274e-01 2.888169908545388338e-04 2.240170365918073281e-03
1.689999999999999879e-04 1.582907717069566844e-01 3.027354772999506964e-04 2.254509350360745651e-03
1.758999999999999930e-04 1.647661861691531171e-01 3.173785841705756782e-04 2.268169273277113179e-03
1.830000000000000029e-04 1.714298948183871907e-01 3.325196584577469103e-04 2.276170334580628063e-03
1.901999999999999882e-04 1.781880600978280049e-01 3.479577791899843742e-04 2.292561569242367037e-03
1.977000000000000079e-04 1.852284385240466902e-01 3.641242634600037713e-04 2.299943765467868384e-03
2.054000000000000053e-04 1.924572004474696396e-01 3.808304060475003897e-04 2.322187632288155723e-03
2.079000000000000119e-04 1.948043378760714872e-01 3.864137987380476553e-04 2.435429768083530178e-03
2.081999999999999921e-04 1.950859988578999005e-01 3.870314100985603909e-04 1.950065624557156818e-03
2.090999999999999868e-04 1.959309855029948977e-01 3.881261957135444685e-04 6.411875526909013856e-04
2.159999999999999919e-04 2.024093317906446865e-01 3.940874488768042125e-04 1.199166870571831411e-03
2.231000000000000019e-04 2.090756740932291913e-01 4.013938420547467825e-04 9.928616047829054436e-04
2.311000000000000066e-04 2.165873044433437034e-01 4.085241694843774404e-04 9.056166966301716637e-04
2.401000000000000085e-04 2.250381721984245909e-01 4.159700687886608468e-04 8.565463878902855599e-04
2.500000000000000052e-04 2.343344406330727658e-01 4.237602369176299592e-04 8.194318812157330018e-04
2.642999999999999733e-04 2.477629128650125634e-01 4.345596643180389446e-04 7.890063723638815647e-04
3.052999999999999941e-04 2.862671839140227270e-01 4.644058706720978241e-04 7.612775562167708662e-04
3.533000000000000224e-04 3.313503829113090826e-01 4.987577676308450197e-04 7.626578558207241024e-04
4.075999999999999871e-04 3.823564017794535141e-01 5.381334366106255759e-04 7.813048116943254948e-04
4.679999999999999915e-04 4.390986251953180042e-01 5.832692638200615834e-04 8.096035963157804938e-04
5.341000000000000261e-04 5.012024644415256081e-01 6.346556894078133086e-04 8.452514814113673558e-04
6.059000000000000366e-04 5.686690698184251325e-01 6.930641302632923034e-04 8.862253587289389486e-04
7.661000000000000275e-04 7.192254882508629654e-01 8.328184776562496576e-04 9.702780530519144065e-04
1.262000000000000101e-03 1.185459127778160093e+00 1.338484980802662205e-03 1.198863597978450275e-03
1.894999999999999983e-03 1.780909071169781921e+00 2.123481960401060308e-03 1.437771491635827115e-03
2.673000000000000029e-03 2.513147344746868850e+00 3.261860252001994032e-03 1.671524566936786766e-03
3.605999999999999830e-03 3.391736073717691369e+00 4.828136641022434151e-03 1.893900408978071038e-03
4.709999999999999777e-03 4.431905410739045870e+00 6.903512974832482635e-03 2.096551352830673849e-03
7.496000000000000059e-03 7.058993649504918366e+00 1.289742191321638018e-02 2.466596387205546859e-03
1.119999999999999989e-02 1.055540362104863661e+01 2.212077014004794340e-02 2.809304433764861584e-03
1.600000000000000033e-02 1.509117352747679952e+01 3.559566804390756900e-02 3.132325055719984222e-03
2.206999999999999934e-02 2.083310616724802244e+01 5.457322122755020599e-02 3.477840948757840792e-03
2.947999999999999926e-02 2.785007348564149154e+01 8.049103664263126956e-02 3.909302116317729670e-03
4.268000000000000266e-02 4.036707211535221518e+01 1.353887601042819133e-01 4.862066536253286525e-03
6.219999999999999835e-02 5.891246509830522626e+01 2.419691225623893105e-01 6.630786177272363080e-03
7.316999999999999893e-02 6.935151695866235855e+01 3.161896974764099033e-01 7.588671314871411888e-03
7.595999999999999974e-02 7.200836722020332559e+01 3.371250777904805096e-01 8.170805199905812125e-03
7.685877551020407761e-02 7.286441677715433229e+01 3.442021993734780683e-01 8.363560492776509619e-03
7.775755102040816935e-02 7.372055004891335273e+01 3.514431310393971719e-01 8.551862836843131602e-03
7.865632653061224722e-02 7.457676794028087386e+01 3.588442186514999577e-01 8.735989803607145665e-03
7.955510204081632508e-02 7.543307129496714936e+01 3.664020446301144984e-01 8.916218964570028077e-03
8.045387755102040295e-02 7.628946090033599603e+01 3.741134280242370269e-01 9.092827891233255105e-03
8.135265306122449469e-02 7.714593749193714700e+01 3.819754245899891765e-01 9.266094155098303017e-03
8.225142857142857256e-02 7.800250175783999396e+01 3.899853268752540014e-01 9.436295327666639407e-03
8.315020408163265042e-02 7.885915434277811187e+01 3.981406643098824860e-01 9.603708980439737072e-03
8.404897959183672829e-02 7.971589585211579276e+01 4.064392033009195382e-01 9.768612684919079220e-03
8.494775510204082003e-02 8.057272685564622350e+01 4.148789473323595267e-01 9.931284012606138648e-03
8.584653061224489790e-02 8.142964789122937930e+01 4.234581370689902702e-01 1.009200053500238295e-02
8.674530612244897576e-02 8.228665946827943856e+01 4.321752504639378989e-01 1.025103982360928839e-02
8.764408163265305363e-02 8.314376207110798589e+01 4.410290028695655895e-01 1.040867944992833471e-02
8.854285714285714537e-02 8.400095616213181415e+01 4.500183471514275224e-01 1.056519698546099124e-02
8.944163265306122323e-02 8.485824218495119453e+01 4.591424738050152166e-01 1.072087000170873078e-02
9.034040816326530110e-02 8.571562056730628854e+01 4.684008110750747522e-01 1.087597607017303132e-02
9.123918367346939284e-02 8.657309172391603624e+01 4.777930250773045340e-01 1.103079276235536740e-02
9.213795918367347071e-02 8.743065605920730832e+01 4.873190199222785512e-01 1.118559764975720836e-02
9.303673469387754857e-02 8.828831396993825820e+01 4.969789378414722347e-01 1.134066830388003218e-02
9.393551020408162644e-02 8.914606584772195674e+01 5.067731593152924319e-01 1.149628229622531340e-02
9.483428571428570431e-02 9.000391208145421729e+01 5.167023032030454432e-01 1.165271719829451963e-02
9.573306122448979605e-02 9.086185305965062753e+01 5.267672268747985997e-01 1.181025058158913926e-02
9.663183673469387391e-02 9.171988917269784736e+01 5.369690263451167844e-01 1.196916001761063122e-02
9.753061224489795178e-02 9.257802081502092051e+01 5.473090364086792281e-01 1.212972307786048046e-02
9.842938775510204352e-02 9.343624838717369130e+01 5.577888307777989496e-01 1.229221733384015802e-02
9.932816326530612139e-02 9.429457229785258221e+01 5.684102222218905265e-01 1.245692035705113325e-02
1.002269387755101993e-01 9.515299296583964406e+01 5.791752627089531424e-01 1.262410971899488414e-02
1.011257142857142910e-01 9.601151082187720931e+01 5.900862435491462943e-01 1.279406299117288870e-02
1.020244897959183689e-01 9.687012631047652178e+01 6.011456955405597435e-01 1.296705774508661799e-02
1.029232653061224467e-01 9.772883989166440699e+01 6.123563891172925100e-01 1.314337155223753960e-02
1.038220408163265246e-01 9.858765204267041327e+01 6.237213344999686937e-01 1.332328198412713674e-02
1.047208163265306025e-01 9.944656325955628517e+01 6.352437818488362309e-01 1.350706661225687874e-02
1.056195918367346942e-01 1.003055740587912084e+02 6.469272214196053472e-01 1.369500300812824881e-02
1.065183673469387721e-01 1.011646849787747584e+02 6.587753837221962394e-01 1.388736874324270759e-02
1.074171428571428499e-01 1.020238965813094154e+02 6.707922396825810596e-01 1.408444138910173657e-02
1.083159183673469417e-01 1.028832094530258274e+02 6.829820008079113824e-01 1.428649851720681201e-02
1.092146938775510195e-01 1.037426242067615760e+02 6.953491193551371019e-01 1.449381769905940323e-02
1.101134693877550974e-01 1.046021414828960729e+02 7.078982885033348049e-01 1.470667650616098478e-02
1.110122448979591891e-01 1.054617619506436483e+02 7.206344425299663348e-01 1.492535251001303638e-02
1.119110204081632531e-01 1.063214863093054134e+02 7.335627569913054646e-01 1.515012328211702217e-02
1.128097959183673449e-01 1.071813152894834786e+02 7.466886489072780408e-01 1.538126639397443055e-02
1.137085714285714227e-01 1.080412496542570437e+02 7.600177769509609549e-01 1.561905941708672391e-02
1.146073469387755006e-01 1.089012902003230323e+02 7.735560416430103947e-01 1.586377992295537678e-02
1.155061224489795924e-01 1.097614377591030461e+02 7.873095855512789454e-01 1.611570548308187412e-02
1.164048979591836702e-01 1.106216931978164411e+02 8.012847934959008711e-01 1.637511366896768003e-02
1.173036734693877481e-01 1.114820574205226791e+02 8.154882927601307951e-01 1.664228205211426906e-02
1.182024489795918398e-01 1.123425313691332263e+02 8.299269533072203275e-01 1.691748820402312614e-02
1.191012244897959177e-01 1.132031160243939638e+02 8.446078880036317349e-01 1.720100969619570846e-02
1.199999999999999956e-01 1.140638124068399151e+02 8.595384528488926312e-01 1.749312410013350097e-02
1.214468878932839641e-01 1.154496366585636480e+02 8.841160845095397125e-01 1.797688674569562772e-02
1.228937757865679464e-01 1.168357577338566671e+02 9.093688448641766842e-01 1.845965465999824945e-02
1.243406636798519149e-01 1.182221800798645006e+02 9.352955303144468990e-01 1.894114726187521788e-02
1.257875515731358973e-01 1.196089080239941609e+02 9.618945527246172134e-01 1.942108605163777799e-02
1.272344394664198519e-01 1.209959457736353556e+02 9.891639416867565870e-01 1.989919459671064469e-02
1.286813273597038343e-01 1.223832974159209925e+02 1.017101346757807168e+00 2.037519851513806129e-02
1.301282152529877889e-01 1.237709669175226708e+02 1.045704039666449869e+00 2.084882545701544770e-02
1.315751031462717713e-01 1.251589581244794402e+02 1.074968916487743620e+00 2.131980508389288639e-02
1.330219910395557537e-01 1.265472747620590042e+02 1.104892499783536097e+00 2.178786904620059334e-02
1.344688789328397083e-01 1.279359204346464196e+02 1.135470940706716947e+00 2.225275095874158435e-02
1.359157668261236906e-01 1.293248986256612909e+02 1.166700021067411663e+00 2.271418637429568899e-02
1.373626547194076730e-01 1.307142126974999314e+02 1.198575155359253852e+00 2.317191275537879014e-02
1.388095426126916276e-01 1.321038658915006749e+02 1.231091392743931312e+00 2.362566944419951590e-02
1.402564305059756100e-01 1.334938613279317963e+02 1.264243418992220258e+00 2.407519763085234216e-02
1.417033183992595924e-01 1.348842020059989295e+02 1.298025558379762412e+00 2.452024031978805932e-02
1.431502062925435470e-01 1.362748908038719264e+02 1.332431775535887652e+00 2.496054229459903837e-02
1.445970941858275294e-01 1.376659304787291376e+02 1.367455677243805123e+00 2.539585008115724865e-02
1.460439820791114840e-01 1.390573236668167851e+02 1.403090514190515448e+00 2.582591190914042614e-02
1.474908699723954664e-01 1.404490728835240816e+02 1.439329182664852436e+00 2.625047767198306764e-02
1.489377578656794487e-01 1.418411805234716496e+02 1.476164226202057783e+00 2.666929888528601217e-02
1.503846457589634034e-01 1.432336488606110265e+02 1.513587837173357098e+00 2.708212864371892237e-02
1.518315336522473857e-01 1.446264800483376405e+02 1.551591858319015360e+00 2.748872157644904890e-02
1.532784215455313404e-01 1.460196761196112050e+02 1.590167784223375236e+00 2.788883380112851598e-02
1.547253094388153227e-01 1.474132389870874533e+02 1.629306762730436953e+00 2.828222287647238695e-02
1.561721973320993051e-01 1.488071704432560409e+02 1.668999596298526233e+00 2.866864775345908181e-02
1.576190852253832597e-01 1.502014721605873149e+02 1.709236743292668059e+00 2.904786872518384799e-02
1.590659731186672421e-01 1.515961456916839154e+02 1.750008319213280927e+00 2.941964737539608243e-02
1.605128610119512245e-01 1.529911924694385164e+02 1.791304097859839350e+00 2.978374652575066853e-02
1.619597489052351791e-01 1.543866138071953742e+02 1.833113512428198755e+00 3.013993018180292222e-02
1.634066367985191615e-01 1.557824108989169645e+02 1.875425656540285591e+00 3.048796347777702268e-02
1.648535246918031438e-01 1.571785848193514425e+02 1.918229285204881229e+00 3.082761262013688358e-02
1.663004125850870984e-01 1.585751365242043676e+02 1.961512815708280622e+00 3.115864482998883384e-02
1.677473004783710808e-01 1.599720668503107674e+02 2.005264328433612686e+00 3.148082828434478619e-02
1.691941883716550632e-01 1.613693765158082840e+02 2.049471567607639155e+00 3.179393205627482205e-02
1.706410762649390178e-01 1.627670661203104601e+02 2.094121941973900114e+00 3.209772605397805817e-02
1.720879641582230002e-01 1.641651361450793729e+02 2.139202525391082244e+00 3.239198095880042871e-02
1.735348520515069826e-01 1.655635869531980973e+02 2.184700057355519753e+00 3.267646816222808531e-02
1.749817399447909372e-01 1.669624187897395586e+02 2.230600943446785944e+00 3.295095970188580137e-02
1.764286278380749196e-01 1.683616317819352446e+02 2.276891255695353333e+00 3.321522819656876069e-02
1.778755157313588742e-01 1.697612259393397665e+02 2.323556732871323138e+00 3.346904678033770647e-02
1.793224036246428565e-01 1.711612011539925788e+02 2.370582780693295533e+00 3.371218903570635805e-02
1.807692915179268112e-01 1.725615572005756064e+02 2.417954471956439200e+00 3.394442892595173761e-02
1.822161794112107935e-01 1.739622937365668918e+02 2.465656546578909314e+00 3.416554072657679297e-02
1.836630673044947759e-01 1.753634103023885586e+02 2.513673411565745752e+00 3.437529895595689555e-02
1.851099551977787305e-01 1.767649063215511376e+02 2.561989140889476602e+00 3.457347830520104276e-02
1.865568430910627129e-01 1.781667811007896773e+02 2.610587475286659132e+00 3.475985356725969783e-02
1.880037309843466953e-01 1.795690338301966733e+02 2.659451821969633922e+00 3.493419956531188669e-02
1.894506188776306499e-01 1.809716635833456166e+02 2.708565254252840226e+00 3.509629108046488644e-02
1.908975067709146323e-01 1.823746693174091718e+02 2.757910511093063288e+00 3.524590277880061684e-02
2.686342923470184108e-01 2.600043483800806712e+02 1.765399900762834307e+01 3.377180133121149841e-01
3.463710779231221615e-01 3.441879757171325309e+02 4.719208568735122356e+01 3.636360984243161010e-01
4.241078634992259677e-01 4.355617310993350202e+02 8.162715407255541322e+01 3.895541835365171623e-01
5.018446490753297740e-01 5.337170505647154641e+02 1.211649352511870177e+02 4.154722686487182792e-01
5.795814346514335247e-01 6.384091490370840347e+02 1.660509723218429770e+02 4.413903537609193406e-01
6.573182202275372754e-01 7.494946785110009841e+02 2.165584489582317360e+02 4.673084388731204575e-01
7.350550058036411372e-01 8.668982754735482104e+02 2.729823325596576069e+02 4.932265239853215189e-01
8.127917913797448879e-01 9.905929601609183237e+02 3.356363690609924788e+02 5.191446090975225802e-01
8.905285769558486386e-01 1.120587886572729758e+03 4.048515180162053184e+02 5.450626942097236416e-01
9.682653625319523893e-01 1.256920300510839297e+03 4.809751787731492527e+02 5.709807793219248140e-01
1.046002148108056140e+00 1.399650053167674514e+03 5.643708813922557965e+02 5.968988644341258754e-01
1.123738933684159891e+00 1.548855742238025869e+03 6.554182666698411595e+02 6.228169495463269367e-01
1.201475719260263864e+00 1.704631930940335678e+03 7.545132555043309139e+02 6.487350346585281091e-01
1.279212504836367614e+00 1.867087104857014992e+03 8.620683484353710355e+02 6.746531197707291705e-01
1.356949290412471365e+00 2.036342148257556346e+03 9.785130190125063336e+02 7.005712048829302319e-01
1.434686075988575116e+00 2.212529195263889505e+03 1.104294178036320318e+03 7.264892899951314043e-01
1.512422861564678866e+00 2.395790757408134596e+03 1.239876693851261052e+03 7.524073751073323546e-01
1.590159647140782617e+00 2.586279058973462270e+03 1.385743958970824679e+03 7.783254602195335270e-01
1.667896432716886368e+00 2.784149749741999585e+03 1.541219758671961017e+03 7.927696976417817343e-01
1.745633218292990119e+00 2.989426321811331945e+03 1.697420845208266655e+03 7.310598864112557438e-01
1.823370003869094091e+00 3.201478994970767417e+03 1.844761328726136298e+03 6.604909899639634929e-01
1.901106789445197842e+00 3.419570531933105485e+03 1.980374270004967229e+03 5.848064393395225880e-01
1.978843575021301593e+00 3.642926605314318294e+03 2.102392537177766826e+03 5.091218887150815720e-01
2.056580360597405122e+00 3.870781993732031879e+03 2.209656129387431065e+03 4.334373380906408890e-01
