# density  energy_density  pressure   sound_speed_squared  [All in nuclear units]
2.720000000000000022e-14 2.529924618736292620e-11 1.061056609100270887e-19 3.766610435412189122e-08
1.269999999999999890e-13 1.181251617980081254e-10 4.870113551826584858e-18 6.497781477172163475e-08
6.929999999999999754e-13 6.445728594625782745e-10 1.018299070687946017e-16 3.033770597342807186e-07
6.295000000000000137e-12 5.855111460395753757e-09 5.487150723824490656e-15 1.763710043904196507e-06
1.581000000000000150e-11 1.470523320212576141e-08 2.904239460150760759e-14 3.559434472327477622e-06
3.971999999999999958e-11 3.694456170323160790e-08 1.439340266754906811e-13 6.772854871245677111e-06
9.975999999999999982e-11 9.278976412613005154e-08 6.812143616221268841e-13 1.246890511177539320e-05
2.505999999999999928e-10 2.330928829758143313e-07 3.107749196951638608e-12 2.212095130576091967e-05
6.294000000000000186e-10 5.854398883216247602e-07 1.363250409771533549e-11 3.761981047239428883e-05
1.581000000000000021e-09 1.470619631082054101e-06 5.726014178088476303e-11 6.095350986710739404e-05
3.971999999999999932e-09 3.694861084648016046e-06 2.210019573374265380e-10 8.628023653304385055e-05
5.000000000000000105e-09 4.651201787816927976e-06 3.071485916280120014e-10 9.387863480799757518e-05
9.975999999999999465e-09 9.280587964640925786e-06 8.385361004129998845e-10 1.356922228656245837e-04
1.989999999999999952e-08 1.851419242998081003e-05 2.287763168863418088e-09 1.782101978513718314e-04
3.972999999999999908e-08 3.696699295748789187e-05 6.061583099087538954e-09 2.308134738384234820e-04
7.925999999999999637e-08 7.375765469301719828e-05 1.575347858094044765e-08 2.960532096713864875e-04
1.580999999999999930e-07 1.471491184379128891e-04 3.910429618672550719e-08 3.402859755131850544e-04
1.991000000000000027e-07 1.853209783927820692e-04 5.252045687899177454e-08 3.626488188833278743e-04
3.155999999999999938e-07 2.938002528823880299e-04 9.730770378831954314e-08 4.630767356912104081e-04
5.000999999999999849e-07 4.656344063839075714e-04 1.837494945860225819e-07 5.430301232045120323e-04
6.295999999999999732e-07 5.862651417037388971e-04 2.503103884558263872e-07 5.605192962670089638e-04
9.666999999999999941e-07 9.003386739730535665e-04 4.324450868778576936e-07 5.993081670211623108e-04
1.531999999999999901e-06 1.427170885631398036e-03 7.780217275717420968e-07 7.125938556504039095e-04
2.506999999999999883e-06 2.336134972129507662e-03 1.471005394641589826e-06 8.121876172121876309e-04
3.974000000000000407e-06 3.704315759716615697e-03 2.695705763844323844e-06 9.780674166779417152e-04
4.830000000000000343e-06 4.502887798316278223e-03 3.503988717694660908e-06 1.046253037768318664e-03
6.080999999999999885e-06 5.670217999231269741e-03 4.731126407333307547e-06 1.056224360839501646e-03
7.930000000000000308e-06 7.396012414119570652e-03 6.599662989063778187e-06 1.109203753630785610e-03
9.982000000000000313e-06 9.311815711689977113e-03 8.879881089227186733e-06 1.271216815433141075e-03
1.256999999999999993e-05 1.172874412604260098e-02 1.207676739913533738e-05 1.374195438212825332e-03
1.521999999999999997e-05 1.420427250933824909e-02 1.547541302213394990e-05 1.371610497379100249e-03
1.991000000000000080e-05 1.858690797761085312e-02 2.160710455847765458e-05 1.426578142835871997e-03
2.506999999999999883e-05 2.341050104039446925e-02 2.908031724375689851e-05 1.672007475975408053e-03
2.790999999999999875e-05 2.606604784714952258e-02 3.357009132255487721e-05 1.709425557744154774e-03
3.806999999999999973e-05 3.556967988784798945e-02 4.986781576435106434e-05 1.720407281314112165e-03
5.063000000000000145e-05 4.732434580343149871e-02 7.073400252905581275e-05 1.829889149838781265e-03
6.592000000000000583e-05 6.164112392498975052e-02 9.765037643900635188e-05 1.930242980462695823e-03
8.433000000000000066e-05 7.888776783401378612e-02 1.317235490470395893e-04 2.021055815200022837e-03
1.062000000000000064e-04 9.938561165478684845e-02 1.740088341640037047e-04 2.104789529260958983e-03
1.321000000000000126e-04 1.236720406455826121e-01 2.260189757651373944e-04 2.178291718403657477e-03
1.623999999999999901e-04 1.520974545104751274e-01 2.888169908545388338e-04 2.240170365918073281e-03
1.689999999999999879e-04 1.582907717069566844e-01 3.027354772999506964e-04 2.254509350360745651e-03
1.758999999999999930e-04 1.647661861691531171e-01 3.173785841705756782e-04 2.268169273277113179e-03
1.830000000000000029e-04 1.714298948183871907e-01 3.325196584577469103e-04 2.276170334580628063e-03
1.901999999999999882e-04 1.781880600978280049e-01 3.479577791899843742e-04 2.292561569242367037e-03
1.977000000000000079e-04 1.852284385240466902e-01 3.641242634600037713e-04 2.299943765467868384e-03
2.054000000000000053e-04 1.924572004474696396e-01 3.808304060475003897e-04 2.322187632288155723e-03
2.079000000000000119e-04 1.948043378760714872e-01 3.864137987380476553e-04 2.435429768083530178e-03
2.081999999999999921e-04 1.950859988578999005e-01 3.870314100985603909e-04 1.950065624557156818e-03
2.090999999999999868e-04 1.959309855029948977e-01 3.881261957135444685e-04 6.411875526909013856e-04
2.159999999999999919e-04 2.024093317906446865e-01 3.940874488768042125e-04 1.199166870571831411e-03
2.231000000000000019e-04 2.090756740932291913e-01 4.013938420547467825e-04 9.928616047829054436e-04
2.311000000000000066e-04 2.165873044433437034e-01 4.085241694843774404e-04 9.056166966301716637e-04
2.401000000000000085e-04 2.250381721984245909e-01 4.159700687886608468e-04 8.565463878902855599e-04
2.500000000000000052e-04 2.343344406330727658e-01 4.237602369176299592e-04 8.194318812157330018e-04
2.642999999999999733e-04 2.477629128650125634e-01 4.345596643180389446e-04 7.890063723638815647e-04
3.052999999999999941e-04 2.862671839140227270e-01 4.644058706720978241e-04 7.612775562167708662e-04
3.533000000000000224e-04 3.313503829113090826e-01 4.987577676308450197e-04 7.626578558207241024e-04
4.075999999999999871e-04 3.823564017794535141e-01 5.381334366106255759e-04 7.813048116943254948e-04
4.679999999999999915e-04 4.390986251953180042e-01 5.832692638200615834e-04 8.096035963157804938e-04
5.341000000000000261e-04 5.012024644415256081e-01 6.346556894078133086e-04 8.452514814113673558e-04
6.059000000000000366e-04 5.686690698184251325e-01 6.930641302632923034e-04 8.862253587289389486e-04
7.661000000000000275e-04 7.192254882508629654e-01 8.328184776562496576e-04 9.702780530519144065e-04
1.262000000000000101e-03 1.185459127778160093e+00 1.338484980802662205e-03 1.198863597978450275e-03
1.894999999999999983e-03 1.780909071169781921e+00 2.123481960401060308e-03 1.437771491635827115e-03
2.673000000000000029e-03 2.513147344746868850e+00 3.261860252001994032e-03 1.671524566936786766e-03
3.605999999999999830e-03 3.391736073717691369e+00 4.828136641022434151e-03 1.893900408978071038e-03
4.709999999999999777e-03 4.431905410739045870e+00 6.903512974832482635e-03 2.096551352830673849e-03
7.496000000000000059e-03 7.058993649504918366e+00 1.289742191321638018e-02 2.466596387205546859e-03
1.119999999999999989e-02 1.055540362104863661e+01 2.212077014004794340e-02 2.809304433764861584e-03
1.600000000000000033e-02 1.509117352747679952e+01 3.559566804390756900e-02 3.132325055719984222e-03
2.206999999999999934e-02 2.083310616724802244e+01 5.457322122755020599e-02 3.477840948757840792e-03
2.947999999999999926e-02 2.785007348564149154e+01 8.049103664263126956e-02 3.909302116317729670e-03
4.268000000000000266e-02 4.036707211535221518e+01 1.353887601042819133e-01 4.862066536253286525e-03
6.219999999999999835e-02 5.891246509830522626e+01 2.419691225623893105e-01 6.630786177272363080e-03
7.316999999999999893e-02 6.935151695866235855e+01 3.161896974764099033e-01 7.588671314871411888e-03
7.595999999999999974e-02 7.200836722020332559e+01 3.371250777904805096e-01 8.170805199905810390e-03
7.685877551020407761e-02 7.286441678701356750e+01 3.442038866086605253e-01 8.367502017570629599e-03
7.775755102040816935e-02 7.372055011444530237e+01 3.514509940148172751e-01 8.562346934643454838e-03
7.865632653061224722e-02 7.457676817129718927e+01 3.588649424411596844e-01 8.755542877713230060e-03
7.955510204081632508e-02 7.543307188855759193e+01 3.664444478713043130e-01 8.947292773368895752e-03
8.045387755102040295e-02 7.628946216264724001e+01 3.741883999008409623e-01 9.137799548199408012e-03
8.135265306122449469e-02 7.714593985851789171e+01 3.820958618020482422e-01 9.327266128793703856e-03
8.225142857142857256e-02 7.800250581261472860e+01 3.901660705924699934e-01 9.515895441740727240e-03
8.315020408163265042e-02 7.885916083570980106e+01 3.983984371070977692e-01 9.703890413629427322e-03
8.404897959183672829e-02 7.971590571561449678e+01 4.067925460739290622e-01 9.891453971048744589e-03
8.494775510204082003e-02 8.057274121977557968e+01 4.153481561927020449e-01 1.007878904058762994e-02
8.584653061224489790e-02 8.142966809776341108e+01 4.240652002166279133e-01 1.026609854883502211e-02
8.674530612244897576e-02 8.228668708365597695e+01 4.329437850369703966e-01 1.045358542237986681e-02
8.764408163265305363e-02 8.314379889832568438e+01 4.419841917703372092e-01 1.064145258781111318e-02
8.854285714285714537e-02 8.400100425163248019e+01 4.511868758485739761e-01 1.082990297171770692e-02
8.944163265306122323e-02 8.485830384452943065e+01 4.605524671111660417e-01 1.101913950068858679e-02
9.034040816326530110e-02 8.571569837108455658e+01 4.700817699000751637e-01 1.120936510131269846e-02
9.123918367346939284e-02 8.657318852042278934e+01 4.797757631569494752e-01 1.140078270017898937e-02
9.213795918367347071e-02 8.743077497859259495e+01 4.896356005226647490e-01 1.159359522387640694e-02
9.303673469387754857e-02 8.828845843036100405e+01 4.996626104391693746e-01 1.178800559899389165e-02
9.393551020408162644e-02 8.914623956093974755e+01 5.098582962536150065e-01 1.198421675212039267e-02
9.483428571428570431e-02 9.000411905764674714e+01 5.202243363247727181e-01 1.218243160984484701e-02
9.573306122448979605e-02 9.086209761150530539e+01 5.307625841317437088e-01 1.238285309875621076e-02
9.663183673469387391e-02 9.172017591878459086e+01 5.414750683849839374e-01 1.258568414544341922e-02
9.753061224489795178e-02 9.257835468248363497e+01 5.523639931396776559e-01 1.279112767649542154e-02
9.842938775510204352e-02 9.343663461376186774e+01 5.634317379114978097e-01 1.299938661850116514e-02
9.932816326530612139e-02 9.429501643331801120e+01 5.746808577948052665e-01 1.321066389804959051e-02
1.002269387755101993e-01 9.515350087272076962e+01 5.861140835833498208e-01 1.342516244172963988e-02
1.011257142857142910e-01 9.601208867569260974e+01 5.977343218935369240e-01 1.364308517613026933e-02
1.020244897959183689e-01 9.687078059934879093e+01 6.095446552903384108e-01 1.386463502784041242e-02
1.029232653061224467e-01 9.772957741539390497e+01 6.215483424159338188e-01 1.409001492344901657e-02
1.038220408163265246e-01 9.858847991127832699e+01 6.337488181211679006e-01 1.431942778954503268e-02
1.047208163265306025e-01 9.944748889131496128e+01 6.461496935999273550e-01 1.455307655271739949e-02
1.056195918367346942e-01 1.003066051777592946e+02 6.587547565265374772e-01 1.479116413955506616e-02
1.065183673469387721e-01 1.011658296118536668e+02 6.715679711962905252e-01 1.503389347664697145e-02
1.074171428571428499e-01 1.020251630548378614e+02 6.845934786692228213e-01 1.528146749058206799e-02
1.083159183673469417e-01 1.028846063889262581e+02 6.978355969172599371e-01 1.553408910794929279e-02
1.092146938775510195e-01 1.037441605182549580e+02 7.112988209748573043e-01 1.579196125533759848e-02
1.101134693877550974e-01 1.046038263697978863e+02 7.249878230932707002e-01 1.605528685933592728e-02
1.110122448979591891e-01 1.054636048942548854e+02 7.389074528985889456e-01 1.632426884653322141e-02
1.119110204081632531e-01 1.063234970669121964e+02 7.530627375536715906e-01 1.659911014351842656e-02
1.128097959183673449e-01 1.071835038884764799e+02 7.674588819241401350e-01 1.688001367688048843e-02
1.137085714285714227e-01 1.080436263858839681e+02 7.821012687485640047e-01 1.716718237320835616e-02
1.146073469387755006e-01 1.089038656130848466e+02 7.969954588130047091e-01 1.746081915909096505e-02
1.155061224489795924e-01 1.097642226518048290e+02 8.121471911300670588e-01 1.776112696111727465e-02
1.164048979591836702e-01 1.106246986122842344e+02 8.275623831226214255e-01 1.806830870587621679e-02
1.173036734693877481e-01 1.114852946339960198e+02 8.432471308123632436e-01 1.838256731995673715e-02
1.182024489795918398e-01 1.123460118863425947e+02 8.592077090133722894e-01 1.870410572994778836e-02
1.191012244897959177e-01 1.132068515693337361e+02 8.754505715308451563e-01 1.903312686243830570e-02
1.199999999999999956e-01 1.140678149142447495e+02 8.919823513651767843e-01 1.936983364401724528e-02
1.216481020702768479e-01 1.156469063617366118e+02 9.230708046941625833e-01 2.000520594419687506e-02
1.232962041405536863e-01 1.172264259115261922e+02 9.551829442028098027e-01 2.065535782589819971e-02
1.249443062108305386e-01 1.188063816858271053e+02 9.883429249289904517e-01 2.132039458987329550e-02
1.265924082811073770e-01 1.203867819125410534e+02 1.022575105624213609e+00 2.200042099457271208e-02
1.282405103513842293e-01 1.219676349237841748e+02 1.057904049082537545e+00 2.269554127580665145e-02
1.298886124216610816e-01 1.235489491544933429e+02 1.094354522519277451e+00 2.340585916479177506e-02
1.315367144919379061e-01 1.251307331411089478e+02 1.131951497997146339e+00 2.413147790467890658e-02
1.331848165622147584e-01 1.267129955203279792e+02 1.170720152897604338e+00 2.487250026564919933e-02
1.348329186324916107e-01 1.282957450279270404e+02 1.210685870435323830e+00 2.562902855866185103e-02
1.364810207027684630e-01 1.298789904976471234e+02 1.251874240213822098e+00 2.640116464793013443e-02
1.381291227730452875e-01 1.314627408601409684e+02 1.294311058820408977e+00 2.718900996219555943e-02
1.397772248433221398e-01 1.330470051419770527e+02 1.338022330458724207e+00 2.799266550486560062e-02
1.414253269135989921e-01 1.346317924646987478e+02 1.383034267617219815e+00 2.881223186307760656e-02
1.430734289838758444e-01 1.362171120439352308e+02 1.429373291772063403e+00 2.964780921574396849e-02
1.447215310541526689e-01 1.378029731885608840e+02 1.477066034122999527e+00 3.049949734063267526e-02
1.463696331244295212e-01 1.393893852999027558e+02 1.526139336360806453e+00 3.136739562053244418e-02
1.480177351947063735e-01 1.409763578709921035e+02 1.576620251465044253e+00 3.225160304854821774e-02
1.496658372649832258e-01 1.425639004858574026e+02 1.628536044530883853e+00 3.315221823257068906e-02
1.513139393352600504e-01 1.441520228188595070e+02 1.681914193623848197e+00 3.406933939895963326e-02
1.529620414055369026e-01 1.457407346340636138e+02 1.736782390661379738e+00 3.500306439547951065e-02
1.546101434758137549e-01 1.473300457846486040e+02 1.793168542320179970e+00 3.595349069352166138e-02
1.562582455460906072e-01 1.489199662123520511e+02 1.851100770968358233e+00 3.692071538964777216e-02
1.579063476163674595e-01 1.505105059469469211e+02 1.910607415621438321e+00 3.790483520648432053e-02
1.595544496866442841e-01 1.521016751057516956e+02 1.971717032921344037e+00 3.890594649299839586e-02
1.612025517569211364e-01 1.536934838931710203e+02 2.034458398137525492e+00 3.992414522418193112e-02
1.628506538271979887e-01 1.552859426002636383e+02 2.098860506189408781e+00 4.095952700017047726e-02
1.644987558974748132e-01 1.568790616043410182e+02 2.164952572689430532e+00 4.201218704482095889e-02
1.661468579677516655e-01 1.584728513685899998e+02 2.232764035005919911e+00 4.308222020377190653e-02
1.677949600380285178e-01 1.600673224417229790e+02 2.302324553345129310e+00 4.416972094200731502e-02
1.694430621083053701e-01 1.616624854576514281e+02 2.373664011851776667e+00 4.527478334094528489e-02
1.710911641785822224e-01 1.632583511351834602e+02 2.446812519727455282e+00 4.639750109507102122e-02
1.727392662488590469e-01 1.648549302777435912e+02 2.521800412366317357e+00 4.753796750813259198e-02
1.743873683191358992e-01 1.664522337731144432e+02 2.598658252507466848e+00 4.869627548891681396e-02
1.760354703894127515e-01 1.680502725931987413e+02 2.677416831403496733e+00 4.987251754662240522e-02
1.776835724596895760e-01 1.696490577938016031e+02 2.758107170004671094e+00 5.106678578584603750e-02
1.793316745299664283e-01 1.712486005144320416e+02 2.840760520158243541e+00 5.227917190119637375e-02
1.809797766002432806e-01 1.728489119781221461e+02 2.925408365822421697e+00 5.350976717155061374e-02
1.826278786705201329e-01 1.744500034912652211e+02 3.012082424294543870e+00 5.475866245396714127e-02
1.842759807407969852e-01 1.760518864434692432e+02 3.100814647453012274e+00 5.602594817726761628e-02
1.859240828110738097e-01 1.776545723074284524e+02 3.191637223012564917e+00 5.731171433530080073e-02
1.875721848813506620e-01 1.792580726388098924e+02 3.284582575792496684e+00 5.861605047990026823e-02
1.892202869516275143e-01 1.808623990761540483e+02 3.379683368997415283e+00 5.993904571354759930e-02
1.908683890219043389e-01 1.824675633407929354e+02 3.476972505510190548e+00 6.128078868175153987e-02
1.925164910921812189e-01 1.840735772367788741e+02 3.576483129196730282e+00 6.264136756515505111e-02
1.941645931624580435e-01 1.856804526508295510e+02 3.678248626222210937e+00 6.402087007137820251e-02
1.958126952327348957e-01 1.872882015522853010e+02 3.782302626378501120e+00 6.541938342660974515e-02
1.974607973030117480e-01 1.888968359930783265e+02 3.888679004422376018e+00 6.683699436695349216e-02
1.991088993732885726e-01 1.905063681077149340e+02 3.997411881424283830e+00 6.827378912954139289e-02
2.007570014435654249e-01 1.921168101132699064e+02 4.108535626127345353e+00 6.972985344342087777e-02
2.782925728426763334e-01 2.693849523285094847e+02 1.320065641088526398e+01 1.638443587723306671e-01
3.558281442417872142e-01 3.501942583970000555e+02 3.034553672714925909e+01 2.579588641012404149e-01
4.333637156408981506e-01 4.356395155223384563e+02 5.654216727294202371e+01 3.520733694301502181e-01
5.108992870400090869e-01 5.266164162157193687e+02 9.302316515673317099e+01 4.461878747590599659e-01
5.884348584391200232e-01 6.239492495507458898e+02 1.412407670603720931e+02 5.403023800879698246e-01
6.659704298382308485e-01 7.284492404574440343e+02 2.028736539229635127e+02 6.344168854168794613e-01
7.435060012373417848e-01 8.409466334721495286e+02 2.798437614127561801e+02 7.285313907457892091e-01
8.210415726364527211e-01 9.623113040193916277e+02 3.743394504133695477e+02 8.226458960746990678e-01
8.985771440355636575e-01 1.093427458087894593e+03 4.823687141545664758e+02 8.253098064065126360e-01
9.761127154346745938e-01 1.234175880902308108e+03 5.930464864533001901e+02 7.519372568667144208e-01
1.053648286833785308e+00 1.383570599669881858e+03 6.996264489820712242e+02 6.785647073269163165e-01
1.131183858232896355e+00 1.540598587303052682e+03 8.001880703783981517e+02 6.051921577871179903e-01
1.208719429632007181e+00 1.704262259731483482e+03 8.930414249510430409e+02 5.318196082473198860e-01
1.286255001031118006e+00 1.873591416899440901e+03 9.767289994732973355e+02 4.584470587075218928e-01
1.363790572430229053e+00 2.047661148523819520e+03 1.050518221967954105e+03 3.906488232468908195e-01
1.441326143829339879e+00 2.225708966571402016e+03 1.118271328350951535e+03 3.707695607178396191e-01
1.518861715228450704e+00 2.407377875492999920e+03 1.185807306341115009e+03 3.727644596680956823e-01
1.596397286627561751e+00 2.592537737471950095e+03 1.255010774116570019e+03 3.747593586183518011e-01
1.673932858026672577e+00 2.781099445716920400e+03 1.325862139959559954e+03 3.767542575686078643e-01
1.751468429425783624e+00 2.972981301164631986e+03 1.398344083388234367e+03 3.787491565188639830e-01
1.829004000824894449e+00 3.168108121813090293e+03 1.472441274785473070e+03 3.807440554691200463e-01
1.906539572224005274e+00 3.366410492379196512e+03 1.548140140004319392e+03 3.827389544193761650e-01
1.984075143623116322e+00 3.567824127348785623e+03 1.625428661217702256e+03 3.847338533696322282e-01
2.061610715022227147e+00 3.772289326511636773e+03 1.704296207250312818e+03 3.867287523198883470e-01
