# density  energy_density  pressure   sound_speed_squared  [All in nuclear units]
2.720000000000000022e-14 2.529924618736292620e-11 1.061056609100270887e-19 3.766610435412189122e-08
1.269999999999999890e-13 1.181251617980081254e-10 4.870113551826584858e-18 6.497781477172163475e-08
6.929999999999999754e-13 6.445728594625782745e-10 1.018299070687946017e-16 3.033770597342807186e-07
6.295000000000000137e-12 5.855111460395753757e-09 5.487150723824490656e-15 1.763710043904196507e-06
1.581000000000000150e-11 1.470523320212576141e-08 2.904239460150760759e-14 3.559434472327477622e-06
3.971999999999999958e-11 3.694456170323160790e-08 1.439340266754906811e-13 6.772854871245677111e-06
9.975999999999999982e-11 9.278976412613005154e-08 6.812143616221268841e-13 1.246890511177539320e-05
2.505999999999999928e-10 2.330928829758143313e-07 3.107749196951638608e-12 2.212095130576091967e-05
6.294000000000000186e-10 5.854398883216247602e-07 1.363250409771533549e-11 3.761981047239428883e-05
1.581000000000000021e-09 1.470619631082054101e-06 5.726014178088476303e-11 6.095350986710739404e-05
3.971999999999999932e-09 3.694861084648016046e-06 2.210019573374265380e-10 8.628023653304385055e-05
5.000000000000000105e-09 4.651201787816927976e-06 3.071485916280120014e-10 9.387863480799757518e-05
9.975999999999999465e-09 9.280587964640925786e-06 8.385361004129998845e-10 1.356922228656245837e-04
1.989999999999999952e-08 1.851419242998081003e-05 2.287763168863418088e-09 1.782101978513718314e-04
3.972999999999999908e-08 3.696699295748789187e-05 6.061583099087538954e-09 2.308134738384234820e-04
7.925999999999999637e-08 7.375765469301719828e-05 1.575347858094044765e-08 2.960532096713864875e-04
1.580999999999999930e-07 1.471491184379128891e-04 3.910429618672550719e-08 3.402859755131850544e-04
1.991000000000000027e-07 1.853209783927820692e-04 5.252045687899177454e-08 3.626488188833278743e-04
3.155999999999999938e-07 2.938002528823880299e-04 9.730770378831954314e-08 4.630767356912104081e-04
5.000999999999999849e-07 4.656344063839075714e-04 1.837494945860225819e-07 5.430301232045120323e-04
6.295999999999999732e-07 5.862651417037388971e-04 2.503103884558263872e-07 5.605192962670089638e-04
9.666999999999999941e-07 9.003386739730535665e-04 4.324450868778576936e-07 5.993081670211623108e-04
1.531999999999999901e-06 1.427170885631398036e-03 7.780217275717420968e-07 7.125938556504039095e-04
2.506999999999999883e-06 2.336134972129507662e-03 1.471005394641589826e-06 8.121876172121876309e-04
3.974000000000000407e-06 3.704315759716615697e-03 2.695705763844323844e-06 9.780674166779417152e-04
4.830000000000000343e-06 4.502887798316278223e-03 3.503988717694660908e-06 1.046253037768318664e-03
6.080999999999999885e-06 5.670217999231269741e-03 4.731126407333307547e-06 1.056224360839501646e-03
7.930000000000000308e-06 7.396012414119570652e-03 6.599662989063778187e-06 1.109203753630785610e-03
9.982000000000000313e-06 9.311815711689977113e-03 8.879881089227186733e-06 1.271216815433141075e-03
1.256999999999999993e-05 1.172874412604260098e-02 1.207676739913533738e-05 1.374195438212825332e-03
1.521999999999999997e-05 1.420427250933824909e-02 1.547541302213394990e-05 1.371610497379100249e-03
1.991000000000000080e-05 1.858690797761085312e-02 2.160710455847765458e-05 1.426578142835871997e-03
2.506999999999999883e-05 2.341050104039446925e-02 2.908031724375689851e-05 1.672007475975408053e-03
2.790999999999999875e-05 2.606604784714952258e-02 3.357009132255487721e-05 1.709425557744154774e-03
3.806999999999999973e-05 3.556967988784798945e-02 4.986781576435106434e-05 1.720407281314112165e-03
5.063000000000000145e-05 4.732434580343149871e-02 7.073400252905581275e-05 1.829889149838781265e-03
6.592000000000000583e-05 6.164112392498975052e-02 9.765037643900635188e-05 1.930242980462695823e-03
8.433000000000000066e-05 7.888776783401378612e-02 1.317235490470395893e-04 2.021055815200022837e-03
1.062000000000000064e-04 9.938561165478684845e-02 1.740088341640037047e-04 2.104789529260958983e-03
1.321000000000000126e-04 1.236720406455826121e-01 2.260189757651373944e-04 2.178291718403657477e-03
1.623999999999999901e-04 1.520974545104751274e-01 2.888169908545388338e-04 2.240170365918073281e-03
1.689999999999999879e-04 1.582907717069566844e-01 3.027354772999506964e-04 2.254509350360745651e-03
1.758999999999999930e-04 1.647661861691531171e-01 3.173785841705756782e-04 2.268169273277113179e-03
1.830000000000000029e-04 1.714298948183871907e-01 3.325196584577469103e-04 2.276170334580628063e-03
1.901999999999999882e-04 1.781880600978280049e-01 3.479577791899843742e-04 2.292561569242367037e-03
1.977000000000000079e-04 1.852284385240466902e-01 3.641242634600037713e-04 2.299943765467868384e-03
2.054000000000000053e-04 1.924572004474696396e-01 3.808304060475003897e-04 2.322187632288155723e-03
2.079000000000000119e-04 1.948043378760714872e-01 3.864137987380476553e-04 2.435429768083530178e-03
2.081999999999999921e-04 1.950859988578999005e-01 3.870314100985603909e-04 1.950065624557156818e-03
2.090999999999999868e-04 1.959309855029948977e-01 3.881261957135444685e-04 6.411875526909013856e-04
2.159999999999999919e-04 2.024093317906446865e-01 3.940874488768042125e-04 1.199166870571831411e-03
2.231000000000000019e-04 2.090756740932291913e-01 4.013938420547467825e-04 9.928616047829054436e-04
2.311000000000000066e-04 2.165873044433437034e-01 4.085241694843774404e-04 9.056166966301716637e-04
2.401000000000000085e-04 2.250381721984245909e-01 4.159700687886608468e-04 8.565463878902855599e-04
2.500000000000000052e-04 2.343344406330727658e-01 4.237602369176299592e-04 8.194318812157330018e-04
2.642999999999999733e-04 2.477629128650125634e-01 4.345596643180389446e-04 7.890063723638815647e-04
3.052999999999999941e-04 2.862671839140227270e-01 4.644058706720978241e-04 7.612775562167708662e-04
3.533000000000000224e-04 3.313503829113090826e-01 4.987577676308450197e-04 7.626578558207241024e-04
4.075999999999999871e-04 3.823564017794535141e-01 5.381334366106255759e-04 7.813048116943254948e-04
4.679999999999999915e-04 4.390986251953180042e-01 5.832692638200615834e-04 8.096035963157804938e-04
5.341000000000000261e-04 5.012024644415256081e-01 6.346556894078133086e-04 8.452514814113673558e-04
6.059000000000000366e-04 5.686690698184251325e-01 6.930641302632923034e-04 8.862253587289389486e-04
7.661000000000000275e-04 7.192254882508629654e-01 8.328184776562496576e-04 9.702780530519144065e-04
1.262000000000000101e-03 1.185459127778160093e+00 1.338484980802662205e-03 1.198863597978450275e-03
1.894999999999999983e-03 1.780909071169781921e+00 2.123481960401060308e-03 1.437771491635827115e-03
2.673000000000000029e-03 2.513147344746868850e+00 3.261860252001994032e-03 1.671524566936786766e-03
3.605999999999999830e-03 3.391736073717691369e+00 4.828136641022434151e-03 1.893900408978071038e-03
4.709999999999999777e-03 4.431905410739045870e+00 6.903512974832482635e-03 2.096551352830673849e-03
7.496000000000000059e-03 7.058993649504918366e+00 1.289742191321638018e-02 2.466596387205546859e-03
1.119999999999999989e-02 1.055540362104863661e+01 2.212077014004794340e-02 2.809304433764861584e-03
1.600000000000000033e-02 1.509117352747679952e+01 3.559566804390756900e-02 3.132325055719984222e-03
2.206999999999999934e-02 2.083310616724802244e+01 5.457322122755020599e-02 3.477840948757840792e-03
2.947999999999999926e-02 2.785007348564149154e+01 8.049103664263126956e-02 3.909302116317729670e-03
4.268000000000000266e-02 4.036707211535221518e+01 1.353887601042819133e-01 4.862066536253286525e-03
6.219999999999999835e-02 5.891246509830522626e+01 2.419691225623893105e-01 6.630786177272363080e-03
7.316999999999999893e-02 6.935151695866235855e+01 3.161896974764099033e-01 7.588671314871411888e-03
7.595999999999999974e-02 7.200836722020332559e+01 3.371250777904805096e-01 8.170805199905812125e-03
7.685877551020407761e-02 7.286441675550052821e+01 3.441984937233595887e-01 8.354903778493572020e-03
7.775755102040816935e-02 7.372054990538266850e+01 3.514259304838011078e-01 8.528997424591223259e-03
7.865632653061224722e-02 7.457676743611619941e+01 3.587991247750273449e-01 8.693708736076687094e-03
7.955510204081632508e-02 7.543307000504277937e+01 3.663103434140098646e-01 8.849660310827884777e-03
8.045387755102040295e-02 7.628945817026149712e+01 3.739523835208800051e-01 8.997474746722742764e-03
8.135265306122449469e-02 7.714593239988180073e+01 3.817185727247278115e-01 9.137774641639182308e-03
8.225142857142857256e-02 7.800249308086843314e+01 3.896027693832507799e-01 9.271182593455122925e-03
8.315020408163265042e-02 7.885914052750351289e+01 3.975993628139946057e-01 9.398321200048489338e-03
8.404897959183672829e-02 7.971587498948412076e+01 4.057032735351820962e-01 9.519813059297206267e-03
8.494775510204082003e-02 8.057269665967710637e+01 4.139099535143712094e-01 9.636280769079193231e-03
8.584653061224489790e-02 8.142960568154738610e+01 4.222153864234030607e-01 9.748346927272371482e-03
8.674530612244897576e-02 8.228660215627846242e+01 4.306160878983134599e-01 9.856634131754669209e-03
8.764408163265305363e-02 8.314368614960022796e+01 4.391091058030719418e-01 9.961764980404005931e-03
8.854285714285714537e-02 8.400085769833964378e+01 4.476920204961984950e-01 1.006436207109830464e-02
8.944163265306122323e-02 8.485811681670770668e+01 4.563629450994750592e-01 1.016504800171548484e-02
9.034040816326530110e-02 8.571546350233683143e+01 4.651205257681317873e-01 1.026444537013346953e-02
9.123918367346939284e-02 8.657289774208024369e+01 4.739639419620325644e-01 1.036317677423018863e-02
9.213795918367347071e-02 8.743041951758587516e+01 4.828929067175279366e-01 1.046186481188355819e-02
9.303673469387754857e-02 8.828802881065516317e+01 4.919076669197745000e-01 1.056113208097150119e-02
9.393551020408162644e-02 8.914572560839728510e+01 5.010090035754394266e-01 1.066160117937194063e-02
9.483428571428570431e-02 9.000350990818938612e+01 5.101982320858288178e-01 1.076389470496280122e-02
9.573306122448979605e-02 9.086138172245006217e+01 5.194772025205850463e-01 1.086863525562200249e-02
9.663183673469387391e-02 9.171934108323767987e+01 5.288482998921991696e-01 1.097644542922746914e-02
9.753061224489795178e-02 9.257738804667874888e+01 5.383144444316861899e-01 1.108794782365712592e-02
9.842938775510204352e-02 9.343552269723667791e+01 5.478790918658538178e-01 1.120376503678889232e-02
9.932816326530612139e-02 9.429374515182655614e+01 5.575462336966867660e-01 1.132451966650068961e-02
1.002269387755101993e-01 9.515205556378344909e+01 5.673203974834493124e-01 1.145083431067044077e-02
1.011257142857142910e-01 9.601045412669132872e+01 5.772066471281805944e-01 1.158333156717607226e-02
1.020244897959183689e-01 9.686894107807809462e+01 5.872105831653320340e-01 1.172263403389550186e-02
1.029232653061224467e-01 9.772751670298310955e+01 5.973383430563673491e-01 1.186936430870665429e-02
1.038220408163265246e-01 9.858618133740232281e+01 6.075966014902021151e-01 1.202414498948745428e-02
1.047208163265306025e-01 9.944493537161747554e+01 6.179925706904288996e-01 1.218759867411582307e-02
1.056195918367346942e-01 1.003037792534129977e+02 6.285340007303267251e-01 1.236034796046968191e-02
1.065183673469387721e-01 1.011627134911860821e+02 6.392291798567093508e-01 1.254301544642695727e-02
1.074171428571428499e-01 1.020217386569551508e+02 6.500869348237217071e-01 1.273622372986556173e-02
1.083159183673469417e-01 1.028808553892700388e+02 6.611166312377380061e-01 1.294059540866342867e-02
1.092146938775510195e-01 1.037400643960283304e+02 6.723281739145655633e-01 1.315675308069847761e-02
1.101134693877550974e-01 1.045993664572025637e+02 6.837320072502039991e-01 1.338531934384863155e-02
1.110122448979591891e-01 1.054587624274804938e+02 6.953391156064467893e-01 1.362691679599181173e-02
1.119110204081632531e-01 1.063182532388244255e+02 7.071610237126575438e-01 1.388216803500593594e-02
1.128097959183673449e-01 1.071778399029500974e+02 7.192097970850920285e-01 1.415169565876893756e-02
1.137085714285714227e-01 1.080375235137312870e+02 7.314980424651663649e-01 1.443612226515872746e-02
1.146073469387755006e-01 1.088973052495307030e+02 7.440389082781200258e-01 1.473607045205324075e-02
1.155061224489795924e-01 1.097571863754626094e+02 7.568460851135421219e-01 1.505216281733039174e-02
1.164048979591836702e-01 1.106171682455881040e+02 7.699338062292707674e-01 1.538502195886810343e-02
1.173036734693877481e-01 1.114772523050466617e+02 7.833168480802046307e-01 1.573527047454429881e-02
1.182024489795918398e-01 1.123374400921266556e+02 7.970105308735915273e-01 1.610353096223691299e-02
1.191012244897959177e-01 1.131977332402773015e+02 8.110307191523907777e-01 1.649042601982383949e-02
1.199999999999999956e-01 1.140581334800639439e+02 8.253938224083363639e-01 1.689657824518302556e-02
1.223837439381340458e-01 1.163406343451369054e+02 8.652731303522442907e-01 1.804676089313483195e-02
1.247674878762680961e-01 1.186239378790835417e+02 9.078277906053605628e-01 1.922768583407202109e-02
1.271512318144021603e-01 1.209080805479878364e+02 9.531298842162052587e-01 2.043871181940952464e-02
1.295349757525361967e-01 1.231930987899987571e+02 1.001250205970563245e+00 2.167917326407110129e-02
1.319187196906702608e-01 1.254790289927287006e+02 1.052258212847059449e+00 2.294838064936399399e-02
1.343024636288042972e-01 1.277659074713594833e+02 1.106221972898445483e+00 2.424562092005541972e-02
1.366862075669383614e-01 1.300537704473975680e+02 1.163208114530428938e+00 2.557015787627805667e-02
1.390699515050723978e-01 1.323426540280312054e+02 1.223281776152033373e+00 2.692123256076386223e-02
1.414536954432064619e-01 1.346325941860428657e+02 1.286506556173433458e+00 2.829806364179158693e-02
1.438374393813404983e-01 1.369236267402356191e+02 1.352944463328848101e+00 2.969984779213533099e-02
1.462211833194745625e-01 1.392157873363364615e+02 1.422655867303588506e+00 3.112576006421098954e-02
1.486049272576085989e-01 1.415091114283426634e+02 1.495699449645584211e+00 3.257495426153673990e-02
1.509886711957426630e-01 1.438036342602798641e+02 1.572132154942867066e+00 3.404656330655356222e-02
1.533724151338767272e-01 1.460993908483426367e+02 1.652009142249395879e+00 3.553969960478615964e-02
1.557561590720107636e-01 1.483964159633934798e+02 1.735383736742461380e+00 3.705345540526742282e-02
1.581399030101448000e-01 1.506947441137938597e+02 1.822307381595574816e+00 3.858690315709811108e-02
1.605236469482788642e-01 1.529944095285474646e+02 1.912829590051321027e+00 4.013909586196556106e-02
1.629073908864129283e-01 1.552954461407334463e+02 2.006997897679139609e+00 4.170906742240460680e-02
1.652911348245469647e-01 1.575978875712127376e+02 2.104857814803377192e+00 4.329583298554520038e-02
1.676748787626810011e-01 1.599017671125890843e+02 2.206452779087240579e+00 4.489838928205736740e-02
1.700586227008150653e-01 1.622071177134093034e+02 2.311824108258495603e+00 4.651571495997352396e-02
1.724423666389491294e-01 1.645139719625868224e+02 2.421010952962912022e+00 4.814677091304055828e-02
1.748261105770831658e-01 1.668223620740371018e+02 2.534050249731528925e+00 4.979050060322979393e-02
1.772098545152172300e-01 1.691323198715082015e+02 2.650976674047836656e+00 5.144583037701010164e-02
1.795935984533512664e-01 1.714438767735990439e+02 2.771822593500907761e+00 5.311166977496944303e-02
1.819773423914853305e-01 1.737570637789500836e+02 2.896618021010481492e+00 5.478691183435371870e-02
1.843610863296193947e-01 1.760719114515984529e+02 3.025390568109787903e+00 5.647043338407384261e-02
1.867448302677534311e-01 1.783884499064864144e+02 3.158165398271794100e+00 5.816109533171967549e-02
1.891285742058874675e-01 1.807067087951134852e+02 3.294965180264281202e+00 5.985774294210623181e-02
1.915123181440215316e-01 1.830267172913254399e+02 3.435810041518912339e+00 6.155920610686609756e-02
1.938960620821555958e-01 1.853485040772292791e+02 3.580717521499162448e+00 6.326429960459380164e-02
1.962798060202896322e-01 1.876720973292270003e+02 3.729702525051654671e+00 6.497182335103741935e-02
1.986635499584236686e-01 1.899975247041627711e+02 3.882777275725067589e+00 6.668056263882755907e-02
2.010472938965577328e-01 1.923248133255721939e+02 4.039951269040392923e+00 6.838928836622562568e-02
2.034310378346917969e-01 1.946539897700316715e+02 4.201231225695916116e+00 7.009675725436988192e-02
2.058147817728258333e-01 1.969850800535956239e+02 4.366621044689838804e+00 7.180171205249100130e-02
2.081985257109598697e-01 1.993181096183223246e+02 4.536121756343003852e+00 7.350288173056769570e-02
2.105822696490939339e-01 2.016531033188739741e+02 4.709731475203662754e+00 7.519898165888820596e-02
2.129660135872279980e-01 2.039900854091931706e+02 4.887445352815756650e+00 7.688871377398068252e-02
2.153497575253620344e-01 2.063290795292438986e+02 5.069255530331629345e+00 7.857076673037627357e-02
2.177335014634960986e-01 2.086701086918149031e+02 5.255151090949548021e+00 8.024381603766370108e-02
2.201172454016301350e-01 2.110131952693790822e+02 5.445118012155805154e+00 8.190652418229656118e-02
2.225009893397641991e-01 2.133583609810035284e+02 5.639139117750693764e+00 8.355754073361121304e-02
2.248847332778982633e-01 2.157056268793049867e+02 5.837194029636904702e+00 8.519550243351534102e-02
2.272684772160322997e-01 2.180550133374462689e+02 6.039259119348435512e+00 8.681903326930522080e-02
2.296522211541663361e-01 2.204065400361677405e+02 6.245307459297385400e+00 8.842674452907157978e-02
2.320359650923004002e-01 2.227602259508496161e+02 6.455308773715391801e+00 9.001723483915294310e-02
2.344197090304344644e-01 2.251160893386010855e+02 6.669229389265857399e+00 9.158909018309704941e-02
2.368034529685685008e-01 2.274741477253682831e+02 6.887032185302451204e+00 9.314088390159051822e-02
3.136033824998222252e-01 3.058002784374281191e+02 2.548427049051215221e+01 3.711950285235952607e-01
3.904033120310759220e-01 3.903890385749788834e+02 5.567972049747157826e+01 3.450224711789424692e-01
4.672032415623296187e-01 4.809428518790516591e+02 8.569012154375573687e+01 3.193421761850928076e-01
5.440031710935833154e-01 5.765972637093590265e+02 1.189146586981794371e+02 3.738100862723687801e-01
6.208031006248370121e-01 6.774333076309396802e+02 1.594364654540063668e+02 4.282779963596447526e-01
6.976030301560907088e-01 7.837541497873611434e+02 2.079590284800336519e+02 4.827459064469207251e-01
7.744029596873444055e-01 8.958765772613902527e+02 2.652424074937777050e+02 5.372138165341966420e-01
8.512028892185981022e-01 1.014132745396547989e+03 3.321071948876722786e+02 5.916817266214726700e-01
9.280028187498517989e-01 1.138871662804397602e+03 4.094387899689479013e+02 6.461496367087485870e-01
1.004802748281105496e+00 1.270460549774443507e+03 4.981919932567299725e+02 7.006175467960245040e-01
1.081602677812359081e+00 1.409286143775140090e+03 5.993959330130762737e+02 7.550854568833004210e-01
1.158402607343612889e+00 1.555755995156925565e+03 7.141593404229148518e+02 8.095533669705764490e-01
1.235202536874866475e+00 1.710299780114698933e+03 8.436761928749806430e+02 8.640212770578523660e-01
1.312002466406120282e+00 1.873370649110859176e+03 9.892317472381978405e+02 9.184891871451283940e-01
1.388802395937374090e+00 2.045446623885397685e+03 1.152208987180827307e+03 9.729570972324044220e-01
1.465602325468627676e+00 2.227020674222867456e+03 1.323051354287116055e+03 9.118890543151955130e-01
1.542402254999881261e+00 2.417463907851105887e+03 1.488759927634219366e+03 8.317666642667819188e-01
1.619202184531135069e+00 2.615942744456482615e+03 1.645613806646348166e+03 7.516442742183679915e-01
1.696002114062388877e+00 2.821608245524589165e+03 1.791720387096236209e+03 6.715218841699541752e-01
1.772802043593642463e+00 3.033607395968449055e+03 1.925387602316081711e+03 5.913994941215405809e-01
1.849601973124896048e+00 3.251092501628121681e+03 2.045130650308580471e+03 5.112771040731268757e-01
1.926401902656149856e+00 3.473229201715893396e+03 2.149674270045567937e+03 4.311547140247130594e-01
2.003201832187403664e+00 3.699203210706557911e+03 2.237951279705278466e+03 3.510323239762991321e-01
2.080001761718657249e+00 3.928225903807305713e+03 2.309098025678852082e+03 2.709099339278855378e-01
