# density  energy_density  pressure   sound_speed_squared  [All in nuclear units]
2.720000000000000022e-14 2.529924618736292620e-11 1.061056609100270887e-19 3.766610435412189122e-08
1.269999999999999890e-13 1.181251617980081254e-10 4.870113551826584858e-18 6.497781477172163475e-08
6.929999999999999754e-13 6.445728594625782745e-10 1.018299070687946017e-16 3.033770597342807186e-07
6.295000000000000137e-12 5.855111460395753757e-09 5.487150723824490656e-15 1.763710043904196507e-06
1.581000000000000150e-11 1.470523320212576141e-08 2.904239460150760759e-14 3.559434472327477622e-06
3.971999999999999958e-11 3.694456170323160790e-08 1.439340266754906811e-13 6.772854871245677111e-06
9.975999999999999982e-11 9.278976412613005154e-08 6.812143616221268841e-13 1.246890511177539320e-05
2.505999999999999928e-10 2.330928829758143313e-07 3.107749196951638608e-12 2.212095130576091967e-05
6.294000000000000186e-10 5.854398883216247602e-07 1.363250409771533549e-11 3.761981047239428883e-05
1.581000000000000021e-09 1.470619631082054101e-06 5.726014178088476303e-11 6.095350986710739404e-05
3.971999999999999932e-09 3.694861084648016046e-06 2.210019573374265380e-10 8.628023653304385055e-05
5.000000000000000105e-09 4.651201787816927976e-06 3.071485916280120014e-10 9.387863480799757518e-05
9.975999999999999465e-09 9.280587964640925786e-06 8.385361004129998845e-10 1.356922228656245837e-04
1.989999999999999952e-08 1.851419242998081003e-05 2.287763168863418088e-09 1.782101978513718314e-04
3.972999999999999908e-08 3.696699295748789187e-05 6.061583099087538954e-09 2.308134738384234820e-04
7.925999999999999637e-08 7.375765469301719828e-05 1.575347858094044765e-08 2.960532096713864875e-04
1.580999999999999930e-07 1.471491184379128891e-04 3.910429618672550719e-08 3.402859755131850544e-04
1.991000000000000027e-07 1.853209783927820692e-04 5.252045687899177454e-08 3.626488188833278743e-04
3.155999999999999938e-07 2.938002528823880299e-04 9.730770378831954314e-08 4.630767356912104081e-04
5.000999999999999849e-07 4.656344063839075714e-04 1.837494945860225819e-07 5.430301232045120323e-04
6.295999999999999732e-07 5.862651417037388971e-04 2.503103884558263872e-07 5.605192962670089638e-04
9.666999999999999941e-07 9.003386739730535665e-04 4.324450868778576936e-07 5.993081670211623108e-04
1.531999999999999901e-06 1.427170885631398036e-03 7.780217275717420968e-07 7.125938556504039095e-04
2.506999999999999883e-06 2.336134972129507662e-03 1.471005394641589826e-06 8.121876172121876309e-04
3.974000000000000407e-06 3.704315759716615697e-03 2.695705763844323844e-06 9.780674166779417152e-04
4.830000000000000343e-06 4.502887798316278223e-03 3.503988717694660908e-06 1.046253037768318664e-03
6.080999999999999885e-06 5.670217999231269741e-03 4.731126407333307547e-06 1.056224360839501646e-03
7.930000000000000308e-06 7.396012414119570652e-03 6.599662989063778187e-06 1.109203753630785610e-03
9.982000000000000313e-06 9.311815711689977113e-03 8.879881089227186733e-06 1.271216815433141075e-03
1.256999999999999993e-05 1.172874412604260098e-02 1.207676739913533738e-05 1.374195438212825332e-03
1.521999999999999997e-05 1.420427250933824909e-02 1.547541302213394990e-05 1.371610497379100249e-03
1.991000000000000080e-05 1.858690797761085312e-02 2.160710455847765458e-05 1.426578142835871997e-03
2.506999999999999883e-05 2.341050104039446925e-02 2.908031724375689851e-05 1.672007475975408053e-03
2.790999999999999875e-05 2.606604784714952258e-02 3.357009132255487721e-05 1.709425557744154774e-03
3.806999999999999973e-05 3.556967988784798945e-02 4.986781576435106434e-05 1.720407281314112165e-03
5.063000000000000145e-05 4.732434580343149871e-02 7.073400252905581275e-05 1.829889149838781265e-03
6.592000000000000583e-05 6.164112392498975052e-02 9.765037643900635188e-05 1.930242980462695823e-03
8.433000000000000066e-05 7.888776783401378612e-02 1.317235490470395893e-04 2.021055815200022837e-03
1.062000000000000064e-04 9.938561165478684845e-02 1.740088341640037047e-04 2.104789529260958983e-03
1.321000000000000126e-04 1.236720406455826121e-01 2.260189757651373944e-04 2.178291718403657477e-03
1.623999999999999901e-04 1.520974545104751274e-01 2.888169908545388338e-04 2.240170365918073281e-03
1.689999999999999879e-04 1.582907717069566844e-01 3.027354772999506964e-04 2.254509350360745651e-03
1.758999999999999930e-04 1.647661861691531171e-01 3.173785841705756782e-04 2.268169273277113179e-03
1.830000000000000029e-04 1.714298948183871907e-01 3.325196584577469103e-04 2.276170334580628063e-03
1.901999999999999882e-04 1.781880600978280049e-01 3.479577791899843742e-04 2.292561569242367037e-03
1.977000000000000079e-04 1.852284385240466902e-01 3.641242634600037713e-04 2.299943765467868384e-03
2.054000000000000053e-04 1.924572004474696396e-01 3.808304060475003897e-04 2.322187632288155723e-03
2.079000000000000119e-04 1.948043378760714872e-01 3.864137987380476553e-04 2.435429768083530178e-03
2.081999999999999921e-04 1.950859988578999005e-01 3.870314100985603909e-04 1.950065624557156818e-03
2.090999999999999868e-04 1.959309855029948977e-01 3.881261957135444685e-04 6.411875526909013856e-04
2.159999999999999919e-04 2.024093317906446865e-01 3.940874488768042125e-04 1.199166870571831411e-03
2.231000000000000019e-04 2.090756740932291913e-01 4.013938420547467825e-04 9.928616047829054436e-04
2.311000000000000066e-04 2.165873044433437034e-01 4.085241694843774404e-04 9.056166966301716637e-04
2.401000000000000085e-04 2.250381721984245909e-01 4.159700687886608468e-04 8.565463878902855599e-04
2.500000000000000052e-04 2.343344406330727658e-01 4.237602369176299592e-04 8.194318812157330018e-04
2.642999999999999733e-04 2.477629128650125634e-01 4.345596643180389446e-04 7.890063723638815647e-04
3.052999999999999941e-04 2.862671839140227270e-01 4.644058706720978241e-04 7.612775562167708662e-04
3.533000000000000224e-04 3.313503829113090826e-01 4.987577676308450197e-04 7.626578558207241024e-04
4.075999999999999871e-04 3.823564017794535141e-01 5.381334366106255759e-04 7.813048116943254948e-04
4.679999999999999915e-04 4.390986251953180042e-01 5.832692638200615834e-04 8.096035963157804938e-04
5.341000000000000261e-04 5.012024644415256081e-01 6.346556894078133086e-04 8.452514814113673558e-04
6.059000000000000366e-04 5.686690698184251325e-01 6.930641302632923034e-04 8.862253587289389486e-04
7.661000000000000275e-04 7.192254882508629654e-01 8.328184776562496576e-04 9.702780530519144065e-04
1.262000000000000101e-03 1.185459127778160093e+00 1.338484980802662205e-03 1.198863597978450275e-03
1.894999999999999983e-03 1.780909071169781921e+00 2.123481960401060308e-03 1.437771491635827115e-03
2.673000000000000029e-03 2.513147344746868850e+00 3.261860252001994032e-03 1.671524566936786766e-03
3.605999999999999830e-03 3.391736073717691369e+00 4.828136641022434151e-03 1.893900408978071038e-03
4.709999999999999777e-03 4.431905410739045870e+00 6.903512974832482635e-03 2.096551352830673849e-03
7.496000000000000059e-03 7.058993649504918366e+00 1.289742191321638018e-02 2.466596387205546859e-03
1.119999999999999989e-02 1.055540362104863661e+01 2.212077014004794340e-02 2.809304433764861584e-03
1.600000000000000033e-02 1.509117352747679952e+01 3.559566804390756900e-02 3.132325055719984222e-03
2.206999999999999934e-02 2.083310616724802244e+01 5.457322122755020599e-02 3.477840948757840792e-03
2.947999999999999926e-02 2.785007348564149154e+01 8.049103664263126956e-02 3.909302116317729670e-03
4.268000000000000266e-02 4.036707211535221518e+01 1.353887601042819133e-01 4.862066536253286525e-03
6.219999999999999835e-02 5.891246509830522626e+01 2.419691225623893105e-01 6.630786177272363080e-03
7.316999999999999893e-02 6.935151695866235855e+01 3.161896974764099033e-01 7.588671314871411888e-03
7.595999999999999974e-02 7.200836722020332559e+01 3.371250777904805096e-01 8.170805199905812125e-03
7.685877551020407761e-02 7.286441686455896161e+01 3.442171573820311248e-01 8.398503665753309991e-03
7.775755102040816935e-02 7.372055062880981779e+01 3.515126557212426284e-01 8.644379318118141850e-03
7.865632653061224722e-02 7.457676997970919786e+01 3.590268175827908692e-01 8.907564229182081059e-03
7.955510204081632508e-02 7.543307652050523870e+01 3.667741514399210923e-01 9.187190471126909647e-03
8.045387755102040295e-02 7.628947197799445235e+01 3.747684293489970675e-01 9.482390116134413113e-03
8.135265306122449469e-02 7.714595819015337952e+01 3.830226868280031116e-01 9.792295236386363080e-03
8.225142857142857256e-02 7.800253709431500226e+01 3.915492227246332724e-01 1.011603790406453637e-02
8.315020408163265042e-02 7.885921071586029996e+01 4.003595990701077079e-01 1.045275019135071676e-02
8.404897959183672829e-02 7.971598115739759294e+01 4.094646409153200328e-01 1.080156417042668106e-02
8.494775510204082003e-02 8.057285058840265890e+01 4.188744361463599963e-01 1.116161191347421477e-02
8.584653061224489790e-02 8.142982123529503724e+01 4.285983352768567567e-01 1.153202549267508779e-02
8.674530612244897576e-02 8.228689537192798298e+01 4.386449512149710461e-01 1.191193698021108562e-02
8.764408163265305363e-02 8.314407531046965971e+01 4.490221590032121290e-01 1.230047844826398160e-02
8.854285714285714537e-02 8.400136339265614538e+01 4.597370955295899675e-01 1.269678196901556470e-02
8.944163265306122323e-02 8.485876198139584403e+01 4.707961592089169867e-01 1.309997961464760309e-02
9.034040816326530110e-02 8.571627345270844955e+01 4.822050096333672098e-01 1.350920345734187879e-02
9.123918367346939284e-02 8.657390018798098197e+01 4.939685671916636545e-01 1.392358556928017903e-02
9.213795918367347071e-02 8.743164456652496597e+01 5.060910126565235645e-01 1.434225802264427196e-02
9.303673469387754857e-02 8.828950895842002922e+01 5.185757867402276400e-01 1.476435288961594136e-02
9.393551020408162644e-02 8.914749571762953906e+01 5.314255896183979200e-01 1.518900224237696578e-02
9.483428571428570431e-02 9.000560717537466360e+01 5.446423804222833009e-01 1.561533815310911857e-02
9.573306122448979605e-02 9.086384563375536061e+01 5.582273767000467402e-01 1.604249269399420433e-02
9.663183673469387391e-02 9.172221335960503552e+01 5.721810538477314356e-01 1.646959793721396517e-02
9.753061224489795178e-02 9.258071257856887826e+01 5.865031445107635744e-01 1.689578595495020569e-02
9.842938775510204352e-02 9.343934546939463814e+01 6.011926379570053935e-01 1.732018881938469576e-02
9.932816326530612139e-02 9.429811415842586086e+01 6.162477794225346139e-01 1.774193860269921222e-02
1.002269387755101993e-01 9.515702071428894726e+01 6.316660694314737423e-01 1.816016737707554229e-02
1.011257142857142910e-01 9.601606714276417165e+01 6.474442630913224139e-01 1.857400721469545934e-02
1.020244897959183689e-01 9.687525538183264473e+01 6.635783693653877213e-01 1.898259018774074020e-02
1.029232653061224467e-01 9.773458729689144775e+01 6.800636503240284902e-01 1.938504836839316861e-02
1.038220408163265246e-01 9.859406467612943459e+01 6.968946203765414849e-01 1.978051382883452836e-02
1.047208163265306025e-01 9.945368922605602791e+01 7.140650454856390938e-01 2.016811864124658585e-02
1.056195918367346942e-01 1.003134625671768845e+02 7.315679423665666370e-01 2.054699487781113526e-02
1.065183673469387721e-01 1.011733862298102906e+02 7.493955776730109042e-01 2.091627461070993954e-02
1.074171428571428499e-01 1.020334616500369975e+02 7.675394671720504602e-01 2.127508991212478939e-02
1.083159183673469417e-01 1.028936901657792049e+02 7.859903749104820703e-01 2.162257285423745817e-02
1.092146938775510195e-01 1.037540730130030369e+02 8.047383123749515255e-01 2.195785550922972965e-02
1.101134693877550974e-01 1.046146113220382432e+02 8.237725376483991946e-01 2.228006994928337717e-02
1.110122448979591891e-01 1.054753061140118291e+02 8.430815545654039012e-01 2.258834824658018797e-02
1.119110204081632531e-01 1.063361582973901136e+02 8.626531118690895505e-01 2.288182247330193195e-02
1.128097959183673449e-01 1.071971686646252806e+02 8.824742023723345374e-01 2.315962470163039633e-02
1.137085714285714227e-01 1.080583378889016046e+02 9.025310621260759225e-01 2.342088700374735447e-02
1.146073469387755006e-01 1.089196665209788364e+02 9.228091695975921827e-01 2.366474145183457972e-02
1.155061224489795924e-01 1.097811549861277172e+02 9.432932448616853094e-01 2.389032011807387321e-02
1.164048979591836702e-01 1.106428035811541406e+02 9.639672488077593027e-01 2.409675507464699440e-02
1.173036734693877481e-01 1.115046124715105123e+02 9.848143823658469520e-01 2.428317839373572359e-02
1.182024489795918398e-01 1.123665816884883526e+02 1.005817085754684870e+00 2.444872214752184802e-02
1.191012244897959177e-01 1.132287111264914898e+02 1.026957037754996804e+00 2.459251840818714452e-02
1.199999999999999956e-01 1.140910005403862186e+02 1.048215155011195554e+00 2.471369924791338990e-02
1.234912452406858319e-01 1.174420284096089659e+02 1.131578384766888323e+00 2.504009279551722839e-02
1.269824904813716682e-01 1.207954298692188360e+02 1.216120535760138122e+00 2.538159615014443787e-02
1.304737357220575322e-01 1.241511728574690068e+02 1.301900011359885312e+00 2.574233976686500155e-02
1.339649809627433685e-01 1.275092287811854703e+02 1.388989466804616324e+00 2.612657602238226129e-02
1.374562262034292048e-01 1.308695726217797528e+02 1.477476254610916140e+00 2.653867475062491113e-02
1.409474714441150689e-01 1.342321830416306909e+02 1.567462856605275512e+00 2.698311898751167351e-02
1.444387166848009052e-01 1.375970424904700167e+02 1.659067303508389379e+00 2.746450091297440027e-02
1.479299619254867415e-01 1.409641373114795613e+02 1.752423582994303120e+00 2.798751797584887735e-02
1.514212071661725778e-01 1.443334578468734435e+02 1.847682037134634303e+00 2.855696918706669349e-02
1.549124524068584141e-01 1.477049985427900651e+02 1.945009750123792402e+00 2.917775156590313515e-02
1.584036976475442782e-01 1.510787580533602750e+02 2.044590927165394589e+00 2.985485672436110488e-02
1.618949428882301145e-01 1.544547393438580229e+02 2.146627265385074868e+00 3.059336757532569312e-02
1.653861881289159508e-01 1.578329497928706928e+02 2.251338317621564222e+00 3.139845515100040535e-02
1.688774333696018148e-01 1.612134012934473049e+02 2.358961849937190713e+00 3.227537551924692522e-02
1.723686786102876511e-01 1.645961103532118557e+02 2.469754193681643173e+00 3.322946678674473103e-02
1.758599238509734874e-01 1.679810981934433585e+02 2.583990592939494402e+00 3.426614617932312312e-02
1.793511690916593238e-01 1.713683908471405175e+02 2.701965548193038469e+00 3.539090719136187696e-02
1.828424143323451601e-01 1.747580192561051149e+02 2.823993157037924639e+00 3.660931679778165609e-02
1.863336595730310241e-01 1.781500193670897545e+02 2.950407452800062114e+00 3.792701272382761196e-02
1.898249048137168604e-01 1.815444322270645330e+02 3.081562741918609127e+00 3.934970076957362145e-02
1.933161500544026967e-01 1.849413040776705657e+02 3.217833940981742025e+00 4.088315218782392207e-02
1.968073952950885608e-01 1.883406864489342070e+02 3.359616914329389026e+00 4.253320111584866364e-02
2.002986405357743971e-01 1.917426362523265766e+02 3.507328813170436543e+00 4.430574206315075758e-02
2.037898857764602334e-01 1.951472158732598245e+02 3.661408417200924248e+00 4.620672745913741164e-02
2.072811310171460697e-01 1.985544932631198378e+02 3.822316479755349494e+00 4.824216526678543754e-02
2.107723762578319060e-01 2.019645420309434201e+02 3.990536077573131113e+00 5.041811666861926305e-02
2.142636214985177701e-01 2.053774415348531477e+02 4.166572966319666449e+00 5.274069383535091166e-02
2.177548667392036064e-01 2.087932769733754697e+02 4.350955943064747977e+00 5.521605778673983889e-02
2.212461119798894427e-01 2.122121394767712843e+02 4.544237216988610939e+00 5.785041635711309777e-02
2.247373572205753067e-01 2.156341261985179187e+02 4.746992789660595236e+00 6.065002227891059389e-02
2.282286024612611430e-01 2.190593404070905876e+02 4.959822846315030453e+00 6.362117139893880280e-02
2.317198477019469793e-01 2.224878915782017543e+02 5.183352159634140754e+00 6.677020104325399885e-02
2.352110929426328156e-01 2.259198954876599998e+02 5.418230507636557114e+00 7.010348854659467777e-02
2.387023381833186519e-01 2.293554743050269167e+02 5.665133107366562726e+00 7.362744996571525535e-02
2.421935834240045160e-01 2.327947566882575927e+02 5.924761066176706059e+00 7.734853899191330984e-02
2.456848286646903523e-01 2.362378778795193739e+02 6.197841852497370851e+00 8.127324608265035222e-02
2.491760739053761886e-01 2.396849798023949347e+02 6.485129788093676240e+00 8.540809782931124694e-02
2.526673191460620527e-01 2.431362111606907490e+02 6.787406563915572733e+00 8.975965657841383782e-02
2.561585643867478890e-01 2.465917275390790167e+02 7.105481781754589221e+00 9.433452032238817675e-02
2.596498096274337253e-01 2.500516915058137499e+02 7.440193524027431948e+00 9.913932287443774638e-02
2.631410548681195616e-01 2.535162727177794011e+02 7.792408954111207819e+00 1.041807343397966046e-01
2.666323001088053979e-01 2.569856480281330846e+02 8.163024949755758541e+00 1.094654618928040529e-01
2.701235453494912342e-01 2.604600015968256912e+02 8.552968772193185742e+00 1.150002508655723482e-01
2.736147905901771260e-01 2.639395250042894077e+02 8.963198773650749018e+00 1.207918861495177326e-01
2.771060358308629068e-01 2.674244173685993360e+02 9.394705146048028865e+00 1.268471939055753617e-01
2.805972810715487986e-01 2.709148854664252895e+02 9.848510713719727860e+00 1.331730435724338968e-01
2.840885263122346349e-01 2.744111438581023776e+02 1.032567177304702533e+01 1.397763501544787290e-01
2.875797715529204712e-01 2.779134150171593092e+02 1.082727898190083771e+01 1.466640767622898467e-01
2.910710167936063075e-01 2.814219294646597973e+02 1.135445830179251736e+01 1.538432373683420173e-01
3.667634450223082321e-01 3.595424201532454163e+02 2.936161610970574998e+01 3.027757177528014321e-01
4.424558732510101011e-01 4.424994227018368065e+02 5.898131829671797277e+01 4.072511704329803695e-01
5.181483014797120257e-01 5.313122788596111832e+02 9.752949253746159286e+01 4.589263479078283803e-01
5.938407297084139502e-01 6.262870695307869937e+02 1.436638087109297999e+02 5.106015253826764466e-01
6.695331579371158748e-01 7.276508938661892216e+02 1.981439045542364283e+02 5.622767028575245130e-01
7.452255861658176883e-01 8.356686118819443436e+02 2.617869216456236359e+02 6.139518803323724683e-01
8.209180143945196129e-01 9.506373279602953517e+02 3.354717830969188412e+02 6.656270578072205346e-01
8.966104426232215374e-01 1.072932009214338677e+03 4.244578775261647365e+02 7.834680357172990606e-01
9.723028708519234620e-01 1.203564281858782806e+03 5.352967390232065554e+02 9.059683528424024024e-01
1.047995299080625387e+00 1.343463082062855847e+03 6.381463260453914472e+02 5.803385621217049817e-01
1.123687727309327311e+00 1.489566054032409056e+03 7.229926692031556286e+02 5.812721843274784028e-01
1.199380155538029236e+00 1.641605307623232420e+03 8.197037255648843939e+02 6.874910420211410855e-01
1.275072583766731160e+00 1.800364007327689251e+03 9.376011050742271209e+02 7.937098997148039903e-01
1.350765011995433085e+00 1.966746192268342156e+03 1.075002261790455350e+03 8.553679558396924953e-01
1.426457440224135009e+00 2.141280261336731655e+03 1.225771880499195959e+03 8.716911753072303926e-01
1.502149868452836934e+00 2.324078794483867568e+03 1.386664350324451561e+03 8.880143947747682898e-01
1.577842296681538858e+00 2.515244336317770831e+03 1.558041403805558048e+03 9.043376142423062980e-01
1.653534724910240783e+00 2.714887238062578490e+03 1.740276927396172596e+03 9.206608337098441952e-01
1.729227153138942707e+00 2.923125141539459037e+03 1.933756990507854425e+03 9.369840531773820924e-01
1.804919581367644632e+00 3.140082555932140622e+03 2.138879920479307202e+03 9.533072726449199896e-01
1.880612009596346557e+00 3.365264736902039658e+03 2.275632201733018519e+03 2.751022730268165573e-01
1.956304437825048481e+00 3.593573544515418689e+03 2.340033128496365862e+03 2.889740720871860069e-01
2.031996866053750406e+00 3.824449145472305190e+03 2.408360961372776273e+03 3.028458711475554566e-01
2.107689294282451886e+00 4.057943819573760265e+03 2.480703113235083947e+03 3.167176702079248507e-01
