# density  energy_density  pressure   sound_speed_squared  [All in nuclear units]
2.720000000000000022e-14 2.529924618736292620e-11 1.061056609100270887e-19 3.766610435412189122e-08
1.269999999999999890e-13 1.181251617980081254e-10 4.870113551826584858e-18 6.497781477172163475e-08
6.929999999999999754e-13 6.445728594625782745e-10 1.018299070687946017e-16 3.033770597342807186e-07
6.295000000000000137e-12 5.855111460395753757e-09 5.487150723824490656e-15 1.763710043904196507e-06
1.581000000000000150e-11 1.470523320212576141e-08 2.904239460150760759e-14 3.559434472327477622e-06
3.971999999999999958e-11 3.694456170323160790e-08 1.439340266754906811e-13 6.772854871245677111e-06
9.975999999999999982e-11 9.278976412613005154e-08 6.812143616221268841e-13 1.246890511177539320e-05
2.505999999999999928e-10 2.330928829758143313e-07 3.107749196951638608e-12 2.212095130576091967e-05
6.294000000000000186e-10 5.854398883216247602e-07 1.363250409771533549e-11 3.761981047239428883e-05
1.581000000000000021e-09 1.470619631082054101e-06 5.726014178088476303e-11 6.095350986710739404e-05
3.971999999999999932e-09 3.694861084648016046e-06 2.210019573374265380e-10 8.628023653304385055e-05
5.000000000000000105e-09 4.651201787816927976e-06 3.071485916280120014e-10 9.387863480799757518e-05
9.975999999999999465e-09 9.280587964640925786e-06 8.385361004129998845e-10 1.356922228656245837e-04
1.989999999999999952e-08 1.851419242998081003e-05 2.287763168863418088e-09 1.782101978513718314e-04
3.972999999999999908e-08 3.696699295748789187e-05 6.061583099087538954e-09 2.308134738384234820e-04
7.925999999999999637e-08 7.375765469301719828e-05 1.575347858094044765e-08 2.960532096713864875e-04
1.580999999999999930e-07 1.471491184379128891e-04 3.910429618672550719e-08 3.402859755131850544e-04
1.991000000000000027e-07 1.853209783927820692e-04 5.252045687899177454e-08 3.626488188833278743e-04
3.155999999999999938e-07 2.938002528823880299e-04 9.730770378831954314e-08 4.630767356912104081e-04
5.000999999999999849e-07 4.656344063839075714e-04 1.837494945860225819e-07 5.430301232045120323e-04
6.295999999999999732e-07 5.862651417037388971e-04 2.503103884558263872e-07 5.605192962670089638e-04
9.666999999999999941e-07 9.003386739730535665e-04 4.324450868778576936e-07 5.993081670211623108e-04
1.531999999999999901e-06 1.427170885631398036e-03 7.780217275717420968e-07 7.125938556504039095e-04
2.506999999999999883e-06 2.336134972129507662e-03 1.471005394641589826e-06 8.121876172121876309e-04
3.974000000000000407e-06 3.704315759716615697e-03 2.695705763844323844e-06 9.780674166779417152e-04
4.830000000000000343e-06 4.502887798316278223e-03 3.503988717694660908e-06 1.046253037768318664e-03
6.080999999999999885e-06 5.670217999231269741e-03 4.731126407333307547e-06 1.056224360839501646e-03
7.930000000000000308e-06 7.396012414119570652e-03 6.599662989063778187e-06 1.109203753630785610e-03
9.982000000000000313e-06 9.311815711689977113e-03 8.879881089227186733e-06 1.271216815433141075e-03
1.256999999999999993e-05 1.172874412604260098e-02 1.207676739913533738e-05 1.374195438212825332e-03
1.521999999999999997e-05 1.420427250933824909e-02 1.547541302213394990e-05 1.371610497379100249e-03
1.991000000000000080e-05 1.858690797761085312e-02 2.160710455847765458e-05 1.426578142835871997e-03
2.506999999999999883e-05 2.341050104039446925e-02 2.908031724375689851e-05 1.672007475975408053e-03
2.790999999999999875e-05 2.606604784714952258e-02 3.357009132255487721e-05 1.709425557744154774e-03
3.806999999999999973e-05 3.556967988784798945e-02 4.986781576435106434e-05 1.720407281314112165e-03
5.063000000000000145e-05 4.732434580343149871e-02 7.073400252905581275e-05 1.829889149838781265e-03
6.592000000000000583e-05 6.164112392498975052e-02 9.765037643900635188e-05 1.930242980462695823e-03
8.433000000000000066e-05 7.888776783401378612e-02 1.317235490470395893e-04 2.021055815200022837e-03
1.062000000000000064e-04 9.938561165478684845e-02 1.740088341640037047e-04 2.104789529260958983e-03
1.321000000000000126e-04 1.236720406455826121e-01 2.260189757651373944e-04 2.178291718403657477e-03
1.623999999999999901e-04 1.520974545104751274e-01 2.888169908545388338e-04 2.240170365918073281e-03
1.689999999999999879e-04 1.582907717069566844e-01 3.027354772999506964e-04 2.254509350360745651e-03
1.758999999999999930e-04 1.647661861691531171e-01 3.173785841705756782e-04 2.268169273277113179e-03
1.830000000000000029e-04 1.714298948183871907e-01 3.325196584577469103e-04 2.276170334580628063e-03
1.901999999999999882e-04 1.781880600978280049e-01 3.479577791899843742e-04 2.292561569242367037e-03
1.977000000000000079e-04 1.852284385240466902e-01 3.641242634600037713e-04 2.299943765467868384e-03
2.054000000000000053e-04 1.924572004474696396e-01 3.808304060475003897e-04 2.322187632288155723e-03
2.079000000000000119e-04 1.948043378760714872e-01 3.864137987380476553e-04 2.435429768083530178e-03
2.081999999999999921e-04 1.950859988578999005e-01 3.870314100985603909e-04 1.950065624557156818e-03
2.090999999999999868e-04 1.959309855029948977e-01 3.881261957135444685e-04 6.411875526909013856e-04
2.159999999999999919e-04 2.024093317906446865e-01 3.940874488768042125e-04 1.199166870571831411e-03
2.231000000000000019e-04 2.090756740932291913e-01 4.013938420547467825e-04 9.928616047829054436e-04
2.311000000000000066e-04 2.165873044433437034e-01 4.085241694843774404e-04 9.056166966301716637e-04
2.401000000000000085e-04 2.250381721984245909e-01 4.159700687886608468e-04 8.565463878902855599e-04
2.500000000000000052e-04 2.343344406330727658e-01 4.237602369176299592e-04 8.194318812157330018e-04
2.642999999999999733e-04 2.477629128650125634e-01 4.345596643180389446e-04 7.890063723638815647e-04
3.052999999999999941e-04 2.862671839140227270e-01 4.644058706720978241e-04 7.612775562167708662e-04
3.533000000000000224e-04 3.313503829113090826e-01 4.987577676308450197e-04 7.626578558207241024e-04
4.075999999999999871e-04 3.823564017794535141e-01 5.381334366106255759e-04 7.813048116943254948e-04
4.679999999999999915e-04 4.390986251953180042e-01 5.832692638200615834e-04 8.096035963157804938e-04
5.341000000000000261e-04 5.012024644415256081e-01 6.346556894078133086e-04 8.452514814113673558e-04
6.059000000000000366e-04 5.686690698184251325e-01 6.930641302632923034e-04 8.862253587289389486e-04
7.661000000000000275e-04 7.192254882508629654e-01 8.328184776562496576e-04 9.702780530519144065e-04
1.262000000000000101e-03 1.185459127778160093e+00 1.338484980802662205e-03 1.198863597978450275e-03
1.894999999999999983e-03 1.780909071169781921e+00 2.123481960401060308e-03 1.437771491635827115e-03
2.673000000000000029e-03 2.513147344746868850e+00 3.261860252001994032e-03 1.671524566936786766e-03
3.605999999999999830e-03 3.391736073717691369e+00 4.828136641022434151e-03 1.893900408978071038e-03
4.709999999999999777e-03 4.431905410739045870e+00 6.903512974832482635e-03 2.096551352830673849e-03
7.496000000000000059e-03 7.058993649504918366e+00 1.289742191321638018e-02 2.466596387205546859e-03
1.119999999999999989e-02 1.055540362104863661e+01 2.212077014004794340e-02 2.809304433764861584e-03
1.600000000000000033e-02 1.509117352747679952e+01 3.559566804390756900e-02 3.132325055719984222e-03
2.206999999999999934e-02 2.083310616724802244e+01 5.457322122755020599e-02 3.477840948757840792e-03
2.947999999999999926e-02 2.785007348564149154e+01 8.049103664263126956e-02 3.909302116317729670e-03
4.268000000000000266e-02 4.036707211535221518e+01 1.353887601042819133e-01 4.862066536253286525e-03
6.219999999999999835e-02 5.891246509830522626e+01 2.419691225623893105e-01 6.630786177272363080e-03
7.316999999999999893e-02 6.935151695866235855e+01 3.161896974764099033e-01 7.588671314871411888e-03
7.595999999999999974e-02 7.200836722020332559e+01 3.371250777904805096e-01 8.170805199905810390e-03
7.685877551020407761e-02 7.286441680305379975e+01 3.442066316276511384e-01 8.373914614857334848e-03
7.775755102040816935e-02 7.372055022074094666e+01 3.514637311471321413e-01 8.579274442055572283e-03
7.865632653061224722e-02 7.457676854455257853e+01 3.588983191719007926e-01 8.786820295063920219e-03
7.955510204081632508e-02 7.543307284318726147e+01 3.665122845959861153e-01 8.996487787445786588e-03
8.045387755102040295e-02 7.628946418223236492e+01 3.743074623693775083e-01 9.208212532764570649e-03
8.135265306122449469e-02 7.714594362366550229e+01 3.822856334818526269e-01 9.421930144583673394e-03
8.225142857142857256e-02 7.800251222537818308e+01 3.904485249457283480e-01 9.637576236466494084e-03
8.315020408163265042e-02 7.885917104071960182e+01 3.987978097775439768e-01 9.855086421976437180e-03
8.404897959183672829e-02 7.971592111806027958e+01 4.073351069786805834e-01 1.007439631467690368e-02
8.494775510204082003e-02 8.057276350037381007e+01 4.160619815149276257e-01 1.029544152813129457e-02
8.584653061224489790e-02 8.142969922483659673e+01 4.249799442950037420e-01 1.051815767590300738e-02
8.674530612244897576e-02 8.228672932244356275e+01 4.340904521480435929e-01 1.074248037155544830e-02
8.764408163265305363e-02 8.314385481764018948e+01 4.433949078000587463e-01 1.096834522865201660e-02
8.854285714285714537e-02 8.400107672796856662e+01 4.528946598493856501e-01 1.119568786075612367e-02
8.944163265306122323e-02 8.485839606372840649e+01 4.625910027411305747e-01 1.142444388143115143e-02
9.034040816326530110e-02 8.571581382765083390e+01 4.724851767406264003e-01 1.165454890424051301e-02
9.123918367346939284e-02 8.657333101458522151e+01 4.825783679059107434e-01 1.188593854274760941e-02
9.213795918367347071e-02 8.743094861119806183e+01 4.928717080592405764e-01 1.211854841051584336e-02
9.303673469387754857e-02 8.828866759568285261e+01 5.033662747576578278e-01 1.235231412110861238e-02
9.393551020408162644e-02 8.914648893748164937e+01 5.140630912626179549e-01 1.258717128808931746e-02
9.483428571428570431e-02 9.000441359701649446e+01 5.249631265086975862e-01 1.282305552502136306e-02
9.573306122448979605e-02 9.086244252543070843e+01 5.360672950713959439e-01 1.305990244546815018e-02
9.663183673469387391e-02 9.172057666433985901e+01 5.473764571340445917e-01 1.329764766299307982e-02
9.753061224489795178e-02 9.257881694559146979e+01 5.588914184538437135e-01 1.353622679115954949e-02
9.842938775510204352e-02 9.343716429103336907e+01 5.706129303270375264e-01 1.377557544353097234e-02
9.932816326530612139e-02 9.429561961229016731e+01 5.825416895532464778e-01 1.401562923367073027e-02
1.002269387755101993e-01 9.515418381054736585e+01 5.946783383989759919e-01 1.425632377514224336e-02
1.011257142857142910e-01 9.601285777634321050e+01 6.070234645603128643e-01 1.449759468150890740e-02
1.020244897959183689e-01 9.687164238936713900e+01 6.195776011248311788e-01 1.473937756633411471e-02
1.029232653061224467e-01 9.773053851826549021e+01 6.323412265327243986e-01 1.498160804318127495e-02
1.038220408163265246e-01 9.858954702045326712e+01 6.453147645371788421e-01 1.522422172561378392e-02
1.047208163265306025e-01 9.944866874193230899e+01 6.584985841640100812e-01 1.546715422719505649e-02
1.056195918367346942e-01 1.003079045171150625e+02 6.718929996705776952e-01 1.571034116148848497e-02
1.065183673469387721e-01 1.011672551686545347e+02 6.854982705039974755e-01 1.595371814205746863e-02
1.074171428571428499e-01 1.020267215072789924e+02 6.993146012586717308e-01 1.619722078246540672e-02
1.083159183673469417e-01 1.028863043316323882e+02 7.133421416331530152e-01 1.644078469627570718e-02
1.092146938775510195e-01 1.037460044281191927e+02 7.275809863863618165e-01 1.668434549705177100e-02
1.101134693877550974e-01 1.046058225707546967e+02 7.420311752931795235e-01 1.692783879835699570e-02
1.110122448979591891e-01 1.054657595210188674e+02 7.566926930994322120e-01 1.717120021375478922e-02
1.119110204081632531e-01 1.063258160277156037e+02 7.715654694762859034e-01 1.741436535680854214e-02
1.128097959183673449e-01 1.071859928268351041e+02 7.866493789740776066e-01 1.765726984108166586e-02
1.137085714285714227e-01 1.080462906414212227e+02 8.019442409755912493e-01 1.789984928013755444e-02
1.146073469387755006e-01 1.089067101814423069e+02 8.174498196488120261e-01 1.814203928753961581e-02
1.155061224489795924e-01 1.097672521436649049e+02 8.331658238991679344e-01 1.838377547685125096e-02
1.164048979591836702e-01 1.106279172115326475e+02 8.490919073212837009e-01 1.862499346163585742e-02
1.173036734693877481e-01 1.114887060550468476e+02 8.652276681502691913e-01 1.886562885545683618e-02
1.182024489795918398e-01 1.123496193306517483e+02 8.815726492125578462e-01 1.910561727187758824e-02
1.191012244897959177e-01 1.132106576811218588e+02 8.981263378763191252e-01 1.934489432446152152e-02
1.199999999999999956e-01 1.140718217354527013e+02 9.148881660014662742e-01 1.958339562677203008e-02
1.208783376952509842e-01 1.149135252782320435e+02 9.314693171293134677e-01 1.981561975959517455e-02
1.217566753905019727e-01 1.157553500211237179e+02 9.482478988579708945e-01 2.004677718354097235e-02
1.226350130857529475e-01 1.165972965109550330e+02 9.652230488038155976e-01 2.027679317613593699e-02
1.235133507810039361e-01 1.174393652803168777e+02 9.823938411755652744e-01 2.050559260902720671e-02
1.243916884762549246e-01 1.182815568474152315e+02 9.997592863755493386e-01 2.073309994701869746e-02
1.252700261715058994e-01 1.191238717159239258e+02 1.017318330599525700e+00 2.095923924702594587e-02
1.261483638667569018e-01 1.199663103748384145e+02 1.035069855434994857e+00 2.118393415695132842e-02
1.270267015620078765e-01 1.208088732983317755e+02 1.053012677457959789e+00 2.140710791447919883e-02
1.279050392572588790e-01 1.216515609456106830e+02 1.071145547828101341e+00 2.162868334579347296e-02
1.287833769525098537e-01 1.224943737607732288e+02 1.089467151882308471e+00 2.184858286421728288e-02
1.296617146477608284e-01 1.233373121726679642e+02 1.107976108726538511e+00 2.206672846877576546e-02
1.305400523430118309e-01 1.241803765947536959e+02 1.126670970825954132e+00 2.228304174268332105e-02
1.314183900382628056e-01 1.250235674249599640e+02 1.145550223593301720e+00 2.249744385175549491e-02
1.322967277335138081e-01 1.258668850455492816e+02 1.164612284975497847e+00 2.270985554274543988e-02
1.331750654287647828e-01 1.267103298229801283e+02 1.183855505038372335e+00 2.292019714160707655e-02
1.340534031240157575e-01 1.275539021077696162e+02 1.203278165549549250e+00 2.312838855168438193e-02
1.349317408192667600e-01 1.283976022343592263e+02 1.222878479559412979e+00 2.333434925182727507e-02
1.358100785145177347e-01 1.292414305209789234e+02 1.242654590980132534e+00 2.353799829443496694e-02
1.366884162097687372e-01 1.300853872695139160e+02 1.262604574162713655e+00 2.373925430342668438e-02
1.375667539050197119e-01 1.309294727653711163e+02 1.282726433472032079e+00 2.393803547214091304e-02
1.384450916002706866e-01 1.317736872773464256e+02 1.303018102859831551e+00 2.413425956116238905e-02
1.393234292955216891e-01 1.326180310574932264e+02 1.323477445435640831e+00 2.432784389607788728e-02
1.402017669907726638e-01 1.334625043409904777e+02 1.344102253035583505e+00 2.451870536516075061e-02
1.410801046860236663e-01 1.343071073460125717e+02 1.364890245789056378e+00 2.470676041698444125e-02
1.419584423812746410e-01 1.351518402735985660e+02 1.385839071683231172e+00 2.489192505796520086e-02
1.428367800765256157e-01 1.359967033075233189e+02 1.406946306125369084e+00 2.507411484983410738e-02
1.437151177717766182e-01 1.368416966141672901e+02 1.428209451502902905e+00 2.525324490703845237e-02
1.445934554670275929e-01 1.376868203423887280e+02 1.449625936741266052e+00 2.542922989407270587e-02
1.454717931622785954e-01 1.385320746233947489e+02 1.471193116859446759e+00 2.560198402273894391e-02
1.463501308575295701e-01 1.393774595706139792e+02 1.492908272523224555e+00 2.577142104933704062e-02
1.472284685527805725e-01 1.402229752795688853e+02 1.514768609596083504e+00 2.593745427178433677e-02
1.481068062480315473e-01 1.410686218277483022e+02 1.536771258687753772e+00 2.609999652666494807e-02
1.489851439432825220e-01 1.419143992744812124e+02 1.558913274700379548e+00 2.625896018620881359e-02
1.498634816385335244e-01 1.427603076608097581e+02 1.581191636372268228e+00 2.641425715519995707e-02
1.507418193337844992e-01 1.436063470093634180e+02 1.603603245819207990e+00 2.656579886781466199e-02
1.516201570290354739e-01 1.444525173242327298e+02 1.626144928073332441e+00 2.671349628438864782e-02
1.524984947242864763e-01 1.452988185908439505e+02 1.648813430619498366e+00 2.685725988811374712e-02
1.533768324195374788e-01 1.461452507758331194e+02 1.671605422929161922e+00 2.699699968166372616e-02
1.542551701147884535e-01 1.469918138269210317e+02 1.694517495991731515e+00 2.713262518374912058e-02
1.551335078100394282e-01 1.478385076727883245e+02 1.717546161843374497e+00 2.726404542560110014e-02
1.560118455052904307e-01 1.486853322229501657e+02 1.740687853093252802e+00 2.739116894738388014e-02
1.568901832005414054e-01 1.495322873676313407e+02 1.763938922447169766e+00 2.751390379453595020e-02
1.577685208957924079e-01 1.503793729776420776e+02 1.787295642228615478e+00 2.763215751403956186e-02
1.586468585910433826e-01 1.512265889042531626e+02 1.810754203897174452e+00 2.774583715061852349e-02
1.595251962862943573e-01 1.520739349790712822e+02 1.834310717564295867e+00 2.785484924286397990e-02
1.604035339815453598e-01 1.529214110139149341e+02 1.857961211506393262e+00 2.795909981928811072e-02
1.612818716767963345e-01 1.537690168006895703e+02 1.881701631675258612e+00 2.805849439430526185e-02
1.621602093720473370e-01 1.546167521112636223e+02 1.905527841205785444e+00 2.815293796414067642e-02
1.630385470672983117e-01 1.554646166973443258e+02 1.929435619920961686e+00 2.824233500266627381e-02
2.413438828414350978e-01 2.325625798161275384e+02 9.763320891895860498e+00 1.721206861181557857e-01
3.196492186155718285e-01 3.138991800768473013e+02 2.983411901967301105e+01 3.159990372336452524e-01
3.979545543897086146e-01 4.016868551157257343e+02 6.421836221361525077e+01 4.598773883491347747e-01
4.762598901638454008e-01 4.975653470932668370e+02 1.117087391054697889e+02 5.272869335200519592e-01
5.545652259379821869e-01 6.019317781949804385e+02 1.648457231559043521e+02 4.937001971439318182e-01
6.328705617121188620e-01 7.138403930345962181e+02 2.180998729731773835e+02 4.601134607678117883e-01
7.111758974862556482e-01 8.323089798034274054e+02 2.705240217666834042e+02 4.265267243916917028e-01
7.894812332603924343e-01 9.564764360260896865e+02 3.213209609508726885e+02 3.929399880155716174e-01
8.677865690345292204e-01 1.085580154117488746e+03 3.698181777626499525e+02 3.593532516394515319e-01
9.460919048086660066e-01 1.218939628685800244e+03 4.154487281806762553e+02 3.257665152633314465e-01
1.024397240582802793e+00 1.355944111469578274e+03 4.577362211661254037e+02 2.921797788872113610e-01
1.102702576356939579e+00 1.496043022983443961e+03 4.962826956687055713e+02 2.585930425110912756e-01
1.181007912131076365e+00 1.638738313787595416e+03 5.307586151434321664e+02 2.250063061349711901e-01
1.259313247905213151e+00 1.783578248849693409e+03 5.608944635138403783e+02 1.914195697588511047e-01
1.337618583679349937e+00 1.930152258976994517e+03 5.864735857708881213e+02 1.578328333827310193e-01
1.415923919453486723e+00 2.078086611114928019e+03 6.073260184041664616e+02 1.242460970066108783e-01
1.494229255227623510e+00 2.227040719836202697e+03 6.233231225617018936e+02 9.065936063049079285e-02
1.572534591001760296e+00 2.376703969853911076e+03 6.343728791656055819e+02 5.707262425437070741e-02
1.650839926775897082e+00 2.526958115127468773e+03 6.476880967253024437e+02 1.200189549925103627e-01
1.729145262550033868e+00 2.678067528076197050e+03 6.709476251675121148e+02 1.875617373944147570e-01
1.807450598324170654e+00 2.830456635214290145e+03 7.047060339266397477e+02 2.551045197963191513e-01
1.885755934098307440e+00 2.984527264651812402e+03 7.489981736949293918e+02 3.193730923954670176e-01
1.964061269872444226e+00 3.140643507957055135e+03 8.035760410124875079e+02 3.792772234678132848e-01
2.042366605646580791e+00 3.299132888383545833e+03 8.684852456524776017e+02 4.391813545401593855e-01
