# density  energy_density  pressure   sound_speed_squared  [All in nuclear units]
2.720000000000000022e-14 2.529924618736292620e-11 1.061056609100270887e-19 3.766610435412189122e-08
1.269999999999999890e-13 1.181251617980081254e-10 4.870113551826584858e-18 6.497781477172163475e-08
6.929999999999999754e-13 6.445728594625782745e-10 1.018299070687946017e-16 3.033770597342807186e-07
6.295000000000000137e-12 5.855111460395753757e-09 5.487150723824490656e-15 1.763710043904196507e-06
1.581000000000000150e-11 1.470523320212576141e-08 2.904239460150760759e-14 3.559434472327477622e-06
3.971999999999999958e-11 3.694456170323160790e-08 1.439340266754906811e-13 6.772854871245677111e-06
9.975999999999999982e-11 9.278976412613005154e-08 6.812143616221268841e-13 1.246890511177539320e-05
2.505999999999999928e-10 2.330928829758143313e-07 3.107749196951638608e-12 2.212095130576091967e-05
6.294000000000000186e-10 5.854398883216247602e-07 1.363250409771533549e-11 3.761981047239428883e-05
1.581000000000000021e-09 1.470619631082054101e-06 5.726014178088476303e-11 6.095350986710739404e-05
3.971999999999999932e-09 3.694861084648016046e-06 2.210019573374265380e-10 8.628023653304385055e-05
5.000000000000000105e-09 4.651201787816927976e-06 3.071485916280120014e-10 9.387863480799757518e-05
9.975999999999999465e-09 9.280587964640925786e-06 8.385361004129998845e-10 1.356922228656245837e-04
1.989999999999999952e-08 1.851419242998081003e-05 2.287763168863418088e-09 1.782101978513718314e-04
3.972999999999999908e-08 3.696699295748789187e-05 6.061583099087538954e-09 2.308134738384234820e-04
7.925999999999999637e-08 7.375765469301719828e-05 1.575347858094044765e-08 2.960532096713864875e-04
1.580999999999999930e-07 1.471491184379128891e-04 3.910429618672550719e-08 3.402859755131850544e-04
1.991000000000000027e-07 1.853209783927820692e-04 5.252045687899177454e-08 3.626488188833278743e-04
3.155999999999999938e-07 2.938002528823880299e-04 9.730770378831954314e-08 4.630767356912104081e-04
5.000999999999999849e-07 4.656344063839075714e-04 1.837494945860225819e-07 5.430301232045120323e-04
6.295999999999999732e-07 5.862651417037388971e-04 2.503103884558263872e-07 5.605192962670089638e-04
9.666999999999999941e-07 9.003386739730535665e-04 4.324450868778576936e-07 5.993081670211623108e-04
1.531999999999999901e-06 1.427170885631398036e-03 7.780217275717420968e-07 7.125938556504039095e-04
2.506999999999999883e-06 2.336134972129507662e-03 1.471005394641589826e-06 8.121876172121876309e-04
3.974000000000000407e-06 3.704315759716615697e-03 2.695705763844323844e-06 9.780674166779417152e-04
4.830000000000000343e-06 4.502887798316278223e-03 3.503988717694660908e-06 1.046253037768318664e-03
6.080999999999999885e-06 5.670217999231269741e-03 4.731126407333307547e-06 1.056224360839501646e-03
7.930000000000000308e-06 7.396012414119570652e-03 6.599662989063778187e-06 1.109203753630785610e-03
9.982000000000000313e-06 9.311815711689977113e-03 8.879881089227186733e-06 1.271216815433141075e-03
1.256999999999999993e-05 1.172874412604260098e-02 1.207676739913533738e-05 1.374195438212825332e-03
1.521999999999999997e-05 1.420427250933824909e-02 1.547541302213394990e-05 1.371610497379100249e-03
1.991000000000000080e-05 1.858690797761085312e-02 2.160710455847765458e-05 1.426578142835871997e-03
2.506999999999999883e-05 2.341050104039446925e-02 2.908031724375689851e-05 1.672007475975408053e-03
2.790999999999999875e-05 2.606604784714952258e-02 3.357009132255487721e-05 1.709425557744154774e-03
3.806999999999999973e-05 3.556967988784798945e-02 4.986781576435106434e-05 1.720407281314112165e-03
5.063000000000000145e-05 4.732434580343149871e-02 7.073400252905581275e-05 1.829889149838781265e-03
6.592000000000000583e-05 6.164112392498975052e-02 9.765037643900635188e-05 1.930242980462695823e-03
8.433000000000000066e-05 7.888776783401378612e-02 1.317235490470395893e-04 2.021055815200022837e-03
1.062000000000000064e-04 9.938561165478684845e-02 1.740088341640037047e-04 2.104789529260958983e-03
1.321000000000000126e-04 1.236720406455826121e-01 2.260189757651373944e-04 2.178291718403657477e-03
1.623999999999999901e-04 1.520974545104751274e-01 2.888169908545388338e-04 2.240170365918073281e-03
1.689999999999999879e-04 1.582907717069566844e-01 3.027354772999506964e-04 2.254509350360745651e-03
1.758999999999999930e-04 1.647661861691531171e-01 3.173785841705756782e-04 2.268169273277113179e-03
1.830000000000000029e-04 1.714298948183871907e-01 3.325196584577469103e-04 2.276170334580628063e-03
1.901999999999999882e-04 1.781880600978280049e-01 3.479577791899843742e-04 2.292561569242367037e-03
1.977000000000000079e-04 1.852284385240466902e-01 3.641242634600037713e-04 2.299943765467868384e-03
2.054000000000000053e-04 1.924572004474696396e-01 3.808304060475003897e-04 2.322187632288155723e-03
2.079000000000000119e-04 1.948043378760714872e-01 3.864137987380476553e-04 2.435429768083530178e-03
2.081999999999999921e-04 1.950859988578999005e-01 3.870314100985603909e-04 1.950065624557156818e-03
2.090999999999999868e-04 1.959309855029948977e-01 3.881261957135444685e-04 6.411875526909013856e-04
2.159999999999999919e-04 2.024093317906446865e-01 3.940874488768042125e-04 1.199166870571831411e-03
2.231000000000000019e-04 2.090756740932291913e-01 4.013938420547467825e-04 9.928616047829054436e-04
2.311000000000000066e-04 2.165873044433437034e-01 4.085241694843774404e-04 9.056166966301716637e-04
2.401000000000000085e-04 2.250381721984245909e-01 4.159700687886608468e-04 8.565463878902855599e-04
2.500000000000000052e-04 2.343344406330727658e-01 4.237602369176299592e-04 8.194318812157330018e-04
2.642999999999999733e-04 2.477629128650125634e-01 4.345596643180389446e-04 7.890063723638815647e-04
3.052999999999999941e-04 2.862671839140227270e-01 4.644058706720978241e-04 7.612775562167708662e-04
3.533000000000000224e-04 3.313503829113090826e-01 4.987577676308450197e-04 7.626578558207241024e-04
4.075999999999999871e-04 3.823564017794535141e-01 5.381334366106255759e-04 7.813048116943254948e-04
4.679999999999999915e-04 4.390986251953180042e-01 5.832692638200615834e-04 8.096035963157804938e-04
5.341000000000000261e-04 5.012024644415256081e-01 6.346556894078133086e-04 8.452514814113673558e-04
6.059000000000000366e-04 5.686690698184251325e-01 6.930641302632923034e-04 8.862253587289389486e-04
7.661000000000000275e-04 7.192254882508629654e-01 8.328184776562496576e-04 9.702780530519144065e-04
1.262000000000000101e-03 1.185459127778160093e+00 1.338484980802662205e-03 1.198863597978450275e-03
1.894999999999999983e-03 1.780909071169781921e+00 2.123481960401060308e-03 1.437771491635827115e-03
2.673000000000000029e-03 2.513147344746868850e+00 3.261860252001994032e-03 1.671524566936786766e-03
3.605999999999999830e-03 3.391736073717691369e+00 4.828136641022434151e-03 1.893900408978071038e-03
4.709999999999999777e-03 4.431905410739045870e+00 6.903512974832482635e-03 2.096551352830673849e-03
7.496000000000000059e-03 7.058993649504918366e+00 1.289742191321638018e-02 2.466596387205546859e-03
1.119999999999999989e-02 1.055540362104863661e+01 2.212077014004794340e-02 2.809304433764861584e-03
1.600000000000000033e-02 1.509117352747679952e+01 3.559566804390756900e-02 3.132325055719984222e-03
2.206999999999999934e-02 2.083310616724802244e+01 5.457322122755020599e-02 3.477840948757840792e-03
2.947999999999999926e-02 2.785007348564149154e+01 8.049103664263126956e-02 3.909302116317729670e-03
4.268000000000000266e-02 4.036707211535221518e+01 1.353887601042819133e-01 4.862066536253286525e-03
6.219999999999999835e-02 5.891246509830522626e+01 2.419691225623893105e-01 6.630786177272363080e-03
7.316999999999999893e-02 6.935151695866235855e+01 3.161896974764099033e-01 7.588671314871411888e-03
7.595999999999999974e-02 7.200836722020332559e+01 3.371250777904805096e-01 8.170805199905812125e-03
7.685877551020407761e-02 7.286441684093816207e+01 3.442131149807766133e-01 8.389060275973685143e-03
7.775755102040816935e-02 7.372055047249514814e+01 3.514939359947050201e-01 8.619538671988759282e-03
7.865632653061224722e-02 7.457676943180210571e+01 3.589778949641640460e-01 8.861864541426341807e-03
7.955510204081632508e-02 7.543307512220468425e+01 3.666750289732366719e-01 9.115662037761760803e-03
8.045387755102040295e-02 7.628946902695503240e+01 3.745950580503716321e-01 9.380555314470335679e-03
8.135265306122449469e-02 7.714595270299136587e+01 3.827473851590224574e-01 9.656168525027389316e-03
8.225142857142857256e-02 7.800252777499240153e+01 3.911410961853957202e-01 9.942125822908234184e-03
8.315020408163265042e-02 7.885919592969148084e+01 3.997849599220898997e-01 1.023805136158819663e-02
8.404897959183672829e-02 7.971595891043628512e+01 4.086874280465175313e-01 1.054356929454259434e-02
8.494775510204082003e-02 8.057281851198142419e+01 4.178566350931168794e-01 1.085830377524675538e-02
8.584653061224489790e-02 8.142977657550041215e+01 4.273003984184562398e-01 1.118187895717598357e-02
8.674530612244897576e-02 8.228683498380644323e+01 4.370262181584331773e-01 1.151391899380561044e-02
8.764408163265305363e-02 8.314399565677128123e+01 4.470412771768518811e-01 1.185404803861096062e-02
8.854285714285714537e-02 8.400126054693075162e+01 4.573524410047510869e-01 1.220189024506734832e-02
8.944163265306122323e-02 8.485863163526799724e+01 4.679662577699257309e-01 1.255706976665009120e-02
9.034040816326530110e-02 8.571611092716634062e+01 4.788889581161623887e-01 1.291921075683451041e-02
9.123918367346939284e-02 8.657370044852160618e+01 4.901264551117702761e-01 1.328793736909592883e-02
9.213795918367347071e-02 8.743140224200662658e+01 5.016843441470555387e-01 1.366287375690966588e-02
9.303673469387754857e-02 8.828921836348104080e+01 5.135679028204469532e-01 1.404364407375104096e-02
9.393551020408162644e-02 8.914715087853802800e+01 5.257820908130305115e-01 1.442987247309537868e-02
9.483428571428570431e-02 9.000520185918247762e+01 5.383315497513084802e-01 1.482118310841799153e-02
9.573306122448979605e-02 9.086337338063367497e+01 5.512206030580439897e-01 1.521720013319420930e-02
9.663183673469387391e-02 9.172166751824596531e+01 5.644532557910962867e-01 1.561754770089934102e-02
9.753061224489795178e-02 9.258008634454336061e+01 5.780331944702009617e-01 1.602184996500871303e-02
9.842938775510204352e-02 9.343863192636125348e+01 5.919637868916817203e-01 1.642973107899765167e-02
9.932816326530612139e-02 9.429730632209087560e+01 6.062480819311242275e-01 1.684081519634146595e-02
1.002269387755101993e-01 9.515611157902161210e+01 6.208888093340790837e-01 1.725472647051548222e-02
1.011257142857142910e-01 9.601504973077692284e+01 6.358883794948888557e-01 1.767108905499502336e-02
1.020244897959183689e-01 9.687412279483925204e+01 6.512488832237720571e-01 1.808952710325540184e-02
1.029232653061224467e-01 9.773333277015993303e+01 6.669720915023273911e-01 1.850966476877193706e-02
1.038220408163265246e-01 9.859268163485086234e+01 6.830594552276437748e-01 1.893112620501995885e-02
1.047208163265306025e-01 9.945217134395318226e+01 6.995121049452368567e-01 1.935353556547478315e-02
1.056195918367346942e-01 1.003118038272806274e+02 7.163308505710538343e-01 1.977651700361173631e-02
1.065183673469387721e-01 1.011715809873341527e+02 7.335161811028118040e-01 2.019969467290612039e-02
1.074171428571428499e-01 1.020315046972835660e+02 7.510682643209649623e-01 2.062269272683327909e-02
1.083159183673469417e-01 1.028915767990151835e+02 7.689869464796067478e-01 2.104513531886851446e-02
1.092146938775510195e-01 1.037517991012411329e+02 7.872717519876440972e-01 2.146664660248715287e-02
1.101134693877550974e-01 1.046121733776681708e+02 8.059218830805974232e-01 2.188685073116451024e-02
1.110122448979591891e-01 1.054727013652238838e+02 8.249362194833952389e-01 2.230537185837592681e-02
1.119110204081632531e-01 1.063333847623372321e+02 8.443133180645545632e-01 2.272183413759668730e-02
1.128097959183673449e-01 1.071942252272721134e+02 8.640514124821591091e-01 2.313586172230214580e-02
1.137085714285714227e-01 1.080552243765101252e+02 8.841484128220475913e-01 2.354707876596760091e-02
1.146073469387755006e-01 1.089163837831829653e+02 9.046019052286655704e-01 2.395510942206838939e-02
1.155061224489795924e-01 1.097777049755497103e+02 9.254091515290236991e-01 2.435957784407982371e-02
1.164048979591836702e-01 1.106391894355194125e+02 9.465670888502353275e-01 2.476010818547721634e-02
1.173036734693877481e-01 1.115008385972162586e+02 9.680723292311183004e-01 2.515632459973589710e-02
1.182024489795918398e-01 1.123626538455853563e+02 9.899211592283502226e-01 2.554785124033118540e-02
1.191012244897959177e-01 1.132246365150379006e+02 1.012109539517689116e+00 2.593431226073840065e-02
1.199999999999999956e-01 1.140867878881349640e+02 1.034633104490781053e+00 2.631533181443286573e-02
1.226843927148174723e-01 1.166628153037367213e+02 1.103865591875370145e+00 2.743574416452244230e-02
1.253687854296349491e-01 1.192403898590046936e+02 1.176063513735314592e+00 2.858400466725024777e-02
1.280531781444524120e-01 1.218195427337025194e+02 1.251302868284228209e+00 2.975992293541603745e-02
1.307375708592698749e-01 1.244003053908740384e+02 1.329659396826887496e+00 3.096329752340533717e-02
1.334219635740873655e-01 1.269827095538750115e+02 1.411208560385841526e+00 3.219391641074467736e-02
1.361063562889048284e-01 1.295667871847935544e+02 1.496025517339856448e+00 3.345155743474719640e-02
1.387907490037222913e-01 1.321525704641418031e+02 1.584185101942134022e+00 3.473598867530047068e-02
1.414751417185397819e-01 1.347400917717095865e+02 1.675761803594030042e+00 3.604696879486992550e-02
1.441595344333572448e-01 1.373293836684852067e+02 1.770829746757144552e+00 3.738424733623591650e-02
1.468439271481747077e-01 1.399204788795542242e+02 1.869462671392764896e+00 3.874756498028088941e-02
1.495283198629921984e-01 1.425134102778945930e+02 1.971733913823124462e+00 4.013665376588579359e-02
1.522127125778096612e-01 1.451082108689953145e+02 2.077716387913830065e+00 4.155123727377953158e-02
1.548971052926271241e-01 1.477049137762304269e+02 2.187482566481137702e+00 4.299103077599320671e-02
1.575814980074445870e-01 1.503035522269263708e+02 2.301104462831553121e+00 4.445574135240175362e-02
1.602658907222620777e-01 1.529041595390639827e+02 2.418653612344669135e+00 4.594506797568488621e-02
1.629502834370795405e-01 1.555067691085639296e+02 2.540201054013124793e+00 4.745870156590484973e-02
1.656346761518970312e-01 1.581114143971038573e+02 2.665817311856252925e+00 4.899632501577966953e-02
1.683190688667144941e-01 1.607181289204229984e+02 2.795572376126271408e+00 5.055761318762038575e-02
1.710034615815319570e-01 1.633269462370718941e+02 2.929535684227984937e+00 5.214223288280792068e-02
1.736878542963494199e-01 1.659378999375643957e+02 3.067776101274684475e+00 5.374984278459477710e-02
1.763722470111669105e-01 1.685510236338984953e+02 3.210361900204536045e+00 5.538009337494143036e-02
1.790566397259843734e-01 1.711663509494072173e+02 3.357360741383050406e+00 5.703262682602459888e-02
1.817410324408018640e-01 1.737839155089092458e+02 3.508839651618406386e+00 5.870707686699221106e-02
1.844254251556193269e-01 1.764037509291259767e+02 3.664865002517295522e+00 6.040306862648146813e-02
1.871098178704367898e-01 1.790258908093363459e+02 3.825502488109841615e+00 6.212021845136463105e-02
1.897942105852542527e-01 1.816503687222417796e+02 3.990817101672713196e+00 6.385813370214048212e-02
1.924786033000717433e-01 1.842772182050136962e+02 4.160873111680118086e+00 6.561641252534590463e-02
1.951629960148892062e-01 1.869064727504987218e+02 4.335734036812720404e+00 6.739464360332667048e-02
1.978473887297066969e-01 1.895381657985570598e+02 4.515462619954841550e+00 6.919240588166776507e-02
2.005317814445241598e-01 1.921723307275111665e+02 4.700120801110398538e+00 7.100926827455850132e-02
2.032161741593416227e-01 1.948090008456816804e+02 4.889769689168218747e+00 7.284478934833692187e-02
2.059005668741590855e-01 1.974482093829906830e+02 5.084469532447267959e+00 7.469851698343621393e-02
2.085849595889765762e-01 2.000899894826093828e+02 5.284279687952325943e+00 7.656998801493544726e-02
2.112693523037940391e-01 2.027343741926316909e+02 5.489258589270446187e+00 7.845872785189900167e-02
2.139537450186115297e-01 2.053813964577550166e+02 5.699463713038412926e+00 8.036425007567636614e-02
2.166381377334289926e-01 2.080310891109479030e+02 5.914951543911061371e+00 8.228605601732187635e-02
2.193225304482464555e-01 2.106834848650858305e+02 6.135777537960176886e+00 8.422363431428699088e-02
2.220069231630639184e-01 2.133386163045415174e+02 6.361996084433259036e+00 8.617646044653244630e-02
2.246913158778814090e-01 2.159965158767062974e+02 6.593660465801218784e+00 8.814399625220653567e-02
2.273757085926988719e-01 2.186572158834301831e+02 6.830822816023657928e+00 9.012568942303744723e-02
2.300601013075163626e-01 2.213207484723631637e+02 7.073534076960148909e+00 9.212097297959431774e-02
2.327444940223338254e-01 2.239871456281801727e+02 7.321843952855506821e+00 9.412926472657728860e-02
2.354288867371512883e-01 2.266564391636738378e+02 7.575800862826884696e+00 9.614996668831315985e-02
2.381132794519687512e-01 2.293286607107018256e+02 7.835451891280161618e+00 9.818246452464877982e-02
2.407976721667862419e-01 2.320038417109703062e+02 8.100842736182995552e+00 1.002261269274553890e-01
2.434820648816037048e-01 2.346820134066386458e+02 8.372017655121712920e+00 1.022803049979829626e-01
2.461664575964211676e-01 2.373632068307338159e+02 8.649019409069252262e+00 1.043443316053351833e-01
2.488508503112386583e-01 2.400474527973542251e+02 8.931889203791321563e+00 1.064175207263701184e-01
2.515352430260561212e-01 2.427347818916529434e+02 9.220666628818220190e+00 1.084991667673763788e-01
3.280345237806264191e-01 3.209985914898089163e+02 2.172035439036516635e+01 2.087664700817642438e-01
4.045338045351967171e-01 4.031118540582774017e+02 4.310135310642503015e+01 3.090337733961520672e-01
4.810330852897669596e-01 4.901331436367394758e+02 7.451664473978253511e+01 4.093010767105398351e-01
5.575323660443372020e-01 5.829815229101391196e+02 1.173313587662708528e+02 5.086409297126066598e-01
6.340316467989075555e-01 6.825098498143469214e+02 1.726565368219516188e+02 5.987080816808169059e-01
7.105309275534777980e-01 7.894652665908887457e+02 2.408584670050294108e+02 6.727585608143211715e-01
7.870302083080481514e-01 9.044097368843071081e+02 3.198614467923695202e+02 7.006526407019040281e-01
8.635294890626183939e-01 1.027460500265076462e+03 4.078689555292422710e+02 7.285467205894866627e-01
9.400287698171886364e-01 1.158719477059488554e+03 5.054089502350339558e+02 7.564408004770694083e-01
1.016528050571758879e+00 1.298316218420775385e+03 6.130392795520451727e+02 7.843348803646521539e-01
1.093027331326329232e+00 1.446403893198967580e+03 7.313475415896841696e+02 8.122289602522347884e-01
1.169526612080899586e+00 1.603115208971935317e+03 8.549242571722444382e+02 7.672249221866046520e-01
1.246025892835469939e+00 1.767791418000063004e+03 9.684616940472642455e+02 6.174090638463834990e-01
1.322525173590040293e+00 1.938768119526053169e+03 1.060887416031230487e+03 4.675932055061624570e-01
1.399024454344610202e+00 2.114375677103784255e+03 1.129637815717846252e+03 3.177773471659423032e-01
1.475523735099180556e+00 2.293010097743429924e+03 1.172912854247375890e+03 1.679614888257212613e-01
1.552023015853750909e+00 2.473163152772380272e+03 1.189707790037795121e+03 1.887884442581597849e-02
1.628522296608321263e+00 2.654296525731435395e+03 1.217962975181614183e+03 2.919323175215219890e-01
1.705021577362891616e+00 2.837765763452728152e+03 1.296919509364422538e+03 5.649857906172279787e-01
1.781520858117461970e+00 3.025637736798217702e+03 1.405235805463076076e+03 5.877184470567704544e-01
1.858020138872031879e+00 3.218275541820285071e+03 1.516575662258017246e+03 5.686627782963641353e-01
1.934519419626602232e+00 3.415476480496634849e+03 1.626798813437414083e+03 5.496071095359575942e-01
2.011018700381172586e+00 3.617009893875384023e+03 1.735606650763086236e+03 5.305514407755510531e-01
2.087517981135742939e+00 3.822651634617867785e+03 1.842717148630249312e+03 5.114957720151445120e-01
