# density  energy_density  pressure   sound_speed_squared  [All in nuclear units]
2.720000000000000022e-14 2.529924618736292620e-11 1.061056609100270887e-19 3.766610435412189122e-08
1.269999999999999890e-13 1.181251617980081254e-10 4.870113551826584858e-18 6.497781477172163475e-08
6.929999999999999754e-13 6.445728594625782745e-10 1.018299070687946017e-16 3.033770597342807186e-07
6.295000000000000137e-12 5.855111460395753757e-09 5.487150723824490656e-15 1.763710043904196507e-06
1.581000000000000150e-11 1.470523320212576141e-08 2.904239460150760759e-14 3.559434472327477622e-06
3.971999999999999958e-11 3.694456170323160790e-08 1.439340266754906811e-13 6.772854871245677111e-06
9.975999999999999982e-11 9.278976412613005154e-08 6.812143616221268841e-13 1.246890511177539320e-05
2.505999999999999928e-10 2.330928829758143313e-07 3.107749196951638608e-12 2.212095130576091967e-05
6.294000000000000186e-10 5.854398883216247602e-07 1.363250409771533549e-11 3.761981047239428883e-05
1.581000000000000021e-09 1.470619631082054101e-06 5.726014178088476303e-11 6.095350986710739404e-05
3.971999999999999932e-09 3.694861084648016046e-06 2.210019573374265380e-10 8.628023653304385055e-05
5.000000000000000105e-09 4.651201787816927976e-06 3.071485916280120014e-10 9.387863480799757518e-05
9.975999999999999465e-09 9.280587964640925786e-06 8.385361004129998845e-10 1.356922228656245837e-04
1.989999999999999952e-08 1.851419242998081003e-05 2.287763168863418088e-09 1.782101978513718314e-04
3.972999999999999908e-08 3.696699295748789187e-05 6.061583099087538954e-09 2.308134738384234820e-04
7.925999999999999637e-08 7.375765469301719828e-05 1.575347858094044765e-08 2.960532096713864875e-04
1.580999999999999930e-07 1.471491184379128891e-04 3.910429618672550719e-08 3.402859755131850544e-04
1.991000000000000027e-07 1.853209783927820692e-04 5.252045687899177454e-08 3.626488188833278743e-04
3.155999999999999938e-07 2.938002528823880299e-04 9.730770378831954314e-08 4.630767356912104081e-04
5.000999999999999849e-07 4.656344063839075714e-04 1.837494945860225819e-07 5.430301232045120323e-04
6.295999999999999732e-07 5.862651417037388971e-04 2.503103884558263872e-07 5.605192962670089638e-04
9.666999999999999941e-07 9.003386739730535665e-04 4.324450868778576936e-07 5.993081670211623108e-04
1.531999999999999901e-06 1.427170885631398036e-03 7.780217275717420968e-07 7.125938556504039095e-04
2.506999999999999883e-06 2.336134972129507662e-03 1.471005394641589826e-06 8.121876172121876309e-04
3.974000000000000407e-06 3.704315759716615697e-03 2.695705763844323844e-06 9.780674166779417152e-04
4.830000000000000343e-06 4.502887798316278223e-03 3.503988717694660908e-06 1.046253037768318664e-03
6.080999999999999885e-06 5.670217999231269741e-03 4.731126407333307547e-06 1.056224360839501646e-03
7.930000000000000308e-06 7.396012414119570652e-03 6.599662989063778187e-06 1.109203753630785610e-03
9.982000000000000313e-06 9.311815711689977113e-03 8.879881089227186733e-06 1.271216815433141075e-03
1.256999999999999993e-05 1.172874412604260098e-02 1.207676739913533738e-05 1.374195438212825332e-03
1.521999999999999997e-05 1.420427250933824909e-02 1.547541302213394990e-05 1.371610497379100249e-03
1.991000000000000080e-05 1.858690797761085312e-02 2.160710455847765458e-05 1.426578142835871997e-03
2.506999999999999883e-05 2.341050104039446925e-02 2.908031724375689851e-05 1.672007475975408053e-03
2.790999999999999875e-05 2.606604784714952258e-02 3.357009132255487721e-05 1.709425557744154774e-03
3.806999999999999973e-05 3.556967988784798945e-02 4.986781576435106434e-05 1.720407281314112165e-03
5.063000000000000145e-05 4.732434580343149871e-02 7.073400252905581275e-05 1.829889149838781265e-03
6.592000000000000583e-05 6.164112392498975052e-02 9.765037643900635188e-05 1.930242980462695823e-03
8.433000000000000066e-05 7.888776783401378612e-02 1.317235490470395893e-04 2.021055815200022837e-03
1.062000000000000064e-04 9.938561165478684845e-02 1.740088341640037047e-04 2.104789529260958983e-03
1.321000000000000126e-04 1.236720406455826121e-01 2.260189757651373944e-04 2.178291718403657477e-03
1.623999999999999901e-04 1.520974545104751274e-01 2.888169908545388338e-04 2.240170365918073281e-03
1.689999999999999879e-04 1.582907717069566844e-01 3.027354772999506964e-04 2.254509350360745651e-03
1.758999999999999930e-04 1.647661861691531171e-01 3.173785841705756782e-04 2.268169273277113179e-03
1.830000000000000029e-04 1.714298948183871907e-01 3.325196584577469103e-04 2.276170334580628063e-03
1.901999999999999882e-04 1.781880600978280049e-01 3.479577791899843742e-04 2.292561569242367037e-03
1.977000000000000079e-04 1.852284385240466902e-01 3.641242634600037713e-04 2.299943765467868384e-03
2.054000000000000053e-04 1.924572004474696396e-01 3.808304060475003897e-04 2.322187632288155723e-03
2.079000000000000119e-04 1.948043378760714872e-01 3.864137987380476553e-04 2.435429768083530178e-03
2.081999999999999921e-04 1.950859988578999005e-01 3.870314100985603909e-04 1.950065624557156818e-03
2.090999999999999868e-04 1.959309855029948977e-01 3.881261957135444685e-04 6.411875526909013856e-04
2.159999999999999919e-04 2.024093317906446865e-01 3.940874488768042125e-04 1.199166870571831411e-03
2.231000000000000019e-04 2.090756740932291913e-01 4.013938420547467825e-04 9.928616047829054436e-04
2.311000000000000066e-04 2.165873044433437034e-01 4.085241694843774404e-04 9.056166966301716637e-04
2.401000000000000085e-04 2.250381721984245909e-01 4.159700687886608468e-04 8.565463878902855599e-04
2.500000000000000052e-04 2.343344406330727658e-01 4.237602369176299592e-04 8.194318812157330018e-04
2.642999999999999733e-04 2.477629128650125634e-01 4.345596643180389446e-04 7.890063723638815647e-04
3.052999999999999941e-04 2.862671839140227270e-01 4.644058706720978241e-04 7.612775562167708662e-04
3.533000000000000224e-04 3.313503829113090826e-01 4.987577676308450197e-04 7.626578558207241024e-04
4.075999999999999871e-04 3.823564017794535141e-01 5.381334366106255759e-04 7.813048116943254948e-04
4.679999999999999915e-04 4.390986251953180042e-01 5.832692638200615834e-04 8.096035963157804938e-04
5.341000000000000261e-04 5.012024644415256081e-01 6.346556894078133086e-04 8.452514814113673558e-04
6.059000000000000366e-04 5.686690698184251325e-01 6.930641302632923034e-04 8.862253587289389486e-04
7.661000000000000275e-04 7.192254882508629654e-01 8.328184776562496576e-04 9.702780530519144065e-04
1.262000000000000101e-03 1.185459127778160093e+00 1.338484980802662205e-03 1.198863597978450275e-03
1.894999999999999983e-03 1.780909071169781921e+00 2.123481960401060308e-03 1.437771491635827115e-03
2.673000000000000029e-03 2.513147344746868850e+00 3.261860252001994032e-03 1.671524566936786766e-03
3.605999999999999830e-03 3.391736073717691369e+00 4.828136641022434151e-03 1.893900408978071038e-03
4.709999999999999777e-03 4.431905410739045870e+00 6.903512974832482635e-03 2.096551352830673849e-03
7.496000000000000059e-03 7.058993649504918366e+00 1.289742191321638018e-02 2.466596387205546859e-03
1.119999999999999989e-02 1.055540362104863661e+01 2.212077014004794340e-02 2.809304433764861584e-03
1.600000000000000033e-02 1.509117352747679952e+01 3.559566804390756900e-02 3.132325055719984222e-03
2.206999999999999934e-02 2.083310616724802244e+01 5.457322122755020599e-02 3.477840948757840792e-03
2.947999999999999926e-02 2.785007348564149154e+01 8.049103664263126956e-02 3.909302116317729670e-03
4.268000000000000266e-02 4.036707211535221518e+01 1.353887601042819133e-01 4.862066536253286525e-03
6.219999999999999835e-02 5.891246509830522626e+01 2.419691225623893105e-01 6.630786177272363080e-03
7.316999999999999893e-02 6.935151695866235855e+01 3.161896974764099033e-01 7.588671314871411888e-03
7.595999999999999974e-02 7.200836722020332559e+01 3.371250777904805096e-01 8.170805199905812125e-03
7.685877551020407761e-02 7.286441680390871056e+01 3.442067779343682687e-01 8.374256399749552965e-03
7.775755102040816935e-02 7.372055022671392521e+01 3.514644632857479856e-01 8.580301074017039273e-03
7.865632653061224722e-02 7.457676856693723266e+01 3.589004244907013086e-01 8.789000817586815895e-03
7.955510204081632508e-02 7.543307290473633486e+01 3.665170062950851571e-01 9.000417225337448493e-03
8.045387755102040295e-02 7.628946432265696842e+01 3.743166075895308365e-01 9.214611892147488853e-03
8.135265306122449469e-02 7.714594390615854991e+01 3.823016814555275089e-01 9.431646412895492229e-03
8.225142857142857256e-02 7.800251274411594693e+01 3.904747352125964022e-01 9.651582382460008672e-03
8.315020408163265042e-02 7.885917192930115505e+01 3.988383304665650275e-01 9.874481395719593435e-03
8.404897959183672829e-02 7.971592255884351630e+01 4.073950831589487342e-01 1.010040504755280524e-02
8.494775510204082003e-02 8.057276573467153469e+01 4.161476636174504806e-01 1.032941493283819588e-02
8.584653061224489790e-02 8.142970256393626016e+01 4.250987966075888136e-01 1.056157264645431887e-02
8.674530612244897576e-02 8.228673415941715064e+01 4.342512613854664361e-01 1.079693978327972946e-02
8.764408163265305363e-02 8.314386163991265732e+01 4.436078917516893538e-01 1.103557793819298811e-02
8.854285714285714537e-02 8.400108613061401286e+01 4.531715761064508685e-01 1.127754870607264488e-02
8.944163265306122323e-02 8.485840876346549067e+01 4.629452575057917407e-01 1.152291368179724634e-02
9.034040816326530110e-02 8.571583067751041085e+01 4.729319337190530104e-01 1.177173446024535643e-02
9.123918367346939284e-02 8.657335301922356052e+01 4.831346572875325207e-01 1.202407263629552692e-02
9.213795918367347071e-02 8.743097694283173382e+01 4.935565355843606894e-01 1.227998980482631654e-02
9.303673469387754857e-02 8.828870361062180905e+01 5.042007308756131234e-01 1.253954756071627187e-02
9.393551020408162644e-02 8.914653419323811079e+01 5.150704603826717909e-01 1.280280749884395684e-02
9.483428571428570431e-02 9.000446986996820442e+01 5.261689963458529018e-01 1.306983121408791630e-02
9.573306122448979605e-02 9.086251182901936829e+01 5.374996660893183176e-01 1.334068030132671417e-02
9.663183673469387391e-02 9.172066126778436512e+01 5.490658520872849779e-01 1.361541635543889878e-02
9.753061224489795178e-02 9.257891939309877216e+01 5.608709920315526620e-01 1.389410097130302189e-02
9.842938775510204352e-02 9.343728742148901745e+01 5.729185789003644613e-01 1.417679574379764919e-02
9.932816326530612139e-02 9.429576657941190376e+01 5.852121610286181719e-01 1.446356226780132204e-02
1.002269387755101993e-01 9.515435810348644452e+01 5.977553421794501443e-01 1.475446213819260263e-02
1.011257142857142910e-01 9.601306324071792631e+01 6.105517816172043588e-01 1.504955694985005143e-02
1.020244897959183689e-01 9.687188324871436862e+01 6.236051941818090416e-01 1.534890829765220635e-02
1.029232653061224467e-01 9.773081939589620504e+01 6.369193503645802501e-01 1.565257777647763304e-02
1.038220408163265246e-01 9.858987296169974002e+01 6.504980763854681935e-01 1.596062698120488677e-02
1.047208163265306025e-01 9.944904523677354291e+01 6.643452542717686038e-01 1.627311750671251583e-02
1.056195918367346942e-01 1.003083375231689587e+02 6.784648219383182521e-01 1.659011094787908591e-02
1.065183673469387721e-01 1.011677511345250764e+02 6.928607732691921539e-01 1.691166889958313838e-02
1.074171428571428499e-01 1.020272873962483544e+02 7.075371582009275517e-01 1.723785295670323542e-02
1.083159183673469417e-01 1.028869476456858649e+02 7.224980828072889993e-01 1.756872471411793230e-02
1.092146938775510195e-01 1.037467332322949716e+02 7.377477093855987489e-01 1.790434576670577732e-02
1.101134693877550974e-01 1.046066455178069674e+02 7.532902565446536469e-01 1.824477770934532922e-02
1.110122448979591891e-01 1.054666858763864212e+02 7.691299992942460806e-01 1.859008213691514325e-02
1.119110204081632531e-01 1.063268556947865591e+02 7.852712691363121777e-01 1.894032064429376772e-02
1.128097959183673449e-01 1.071871563724998850e+02 8.017184541577317969e-01 1.929555482635977176e-02
1.137085714285714227e-01 1.080475893219049652e+02 8.184759991247920752e-01 1.965584627799168982e-02
1.146073469387755006e-01 1.089081559684087637e+02 8.355484055793489517e-01 2.002125659406809796e-02
1.155061224489795924e-01 1.097688577505864913e+02 8.529402319366978791e-01 2.039184736946753757e-02
1.164048979591836702e-01 1.106296961203167655e+02 8.706560935851803684e-01 2.076768019906856041e-02
1.173036734693877481e-01 1.114906725429136571e+02 8.887006629875499053e-01 2.114881667774972523e-02
1.182024489795918398e-01 1.123517884972556402e+02 9.070786697841151103e-01 2.153531840038959422e-02
1.191012244897959177e-01 1.132130454759114855e+02 9.257949008976851246e-01 2.192724696186670874e-02
1.199999999999999956e-01 1.140744449852629003e+02 9.448542006403425342e-01 2.232466395705963447e-02
1.219027883348491464e-01 1.158985836830981526e+02 9.863585493102955404e-01 2.318089462433876521e-02
1.238055766696982973e-01 1.177233825531469904e+02 1.029448202758577402e+00 2.404570857578896062e-02
1.257083650045474621e-01 1.195488559437454938e+02 1.074140007282678999e+00 2.491876664525067772e-02
1.276111533393965991e-01 1.213750180195952453e+02 1.120450245389156274e+00 2.579973603227195267e-02
1.295139416742457639e-01 1.232018827616508645e+02 1.168394646615765087e+00 2.668829037459538242e-02
1.314167300090949009e-01 1.250294639671749621e+02 1.217988398446764320e+00 2.758410981579325141e-02
1.333195183439440656e-01 1.268577752499479061e+02 1.269246157316280765e+00 2.848688106839050369e-02
1.352223066787932027e-01 1.286868300406229935e+02 1.322182059695113487e+00 2.939629747278121180e-02
1.371250950136423674e-01 1.305166415872190839e+02 1.376809733256874502e+00 3.031205905222896305e-02
1.390278833484915044e-01 1.323472229557407331e+02 1.433142308119759623e+00 3.123387256421010852e-02
1.409306716833406692e-01 1.341785870309188056e+02 1.491192428160678762e+00 3.216145154834534892e-02
1.428334600181898062e-01 1.360107465170643763e+02 1.550972262398786938e+00 3.309451637114334960e-02
1.447362483530389710e-01 1.378437139390293282e+02 1.612493516445838493e+00 3.403279426776537053e-02
1.466390366878881080e-01 1.396775016432678171e+02 1.675767444021027508e+00 3.497601938100341340e-02
1.485418250227372727e-01 1.415121217989908189e+02 1.740804858528305354e+00 3.592393279765202646e-02
1.504446133575864097e-01 1.433475863994124211e+02 1.807616144694357052e+00 3.687628258244040474e-02
1.523474016924355745e-01 1.451839072630792487e+02 1.876211270265703224e+00 3.783282380968083086e-02
1.542501900272847115e-01 1.470210960352803511e+02 1.946599797763535422e+00 3.879331859277797279e-02
1.561529783621338763e-01 1.488591641895323505e+02 2.018790896295148851e+00 3.975753611173505481e-02
1.580557666969830133e-01 1.506981230291376050e+02 2.092793353420935976e+00 4.072525263878325197e-02
1.599585550318321781e-01 1.525379836888092484e+02 2.168615587076134776e+00 4.169625156225297002e-02
1.618613433666813151e-01 1.543787571363621112e+02 2.246265657546591132e+00 4.267032340879772789e-02
1.637641317015304798e-01 1.562204541744644928e+02 2.325751279498003754e+00 4.364726586407500358e-02
1.656669200363796168e-01 1.580630854424485108e+02 2.407079834058155843e+00 4.462688379198104238e-02
1.675697083712287816e-01 1.599066614181776345e+02 2.490258380951831274e+00 4.560898925253174113e-02
1.694724967060779186e-01 1.617511924199656903e+02 2.575293670688123981e+00 4.659340151847479738e-02
1.713752850409270834e-01 1.635966886085479643e+02 2.662192156800023302e+00 4.757994709071493994e-02
1.732780733757762204e-01 1.654431599891009341e+02 2.750960008136158041e+00 4.856845971262670203e-02
1.751808617106253851e-01 1.672906164133077596e+02 2.841603121204733462e+00 4.955878038332724861e-02
1.770836500454745222e-01 1.691390675814693338e+02 2.934127132569682050e+00 5.055075736997562824e-02
1.789864383803236869e-01 1.709885230446573701e+02 3.028537431299195504e+00 5.154424621916160049e-02
1.808892267151728239e-01 1.728389922069088982e+02 3.124839171466765375e+00 5.253910976744333161e-02
1.827920150500219887e-01 1.746904843274606094e+02 3.223037284705005057e+00 5.353521815108946286e-02
1.846948033848711535e-01 1.765430085230197221e+02 3.323136492812475140e+00 5.453244881507795377e-02
1.865975917197202905e-01 1.783965737700732745e+02 3.425141320413855883e+00 5.553068652140033534e-02
1.885003800545694275e-01 1.802511889072310396e+02 3.529056107673789189e+00 5.652982335671851571e-02
1.904031683894185922e-01 1.821068626376035411e+02 3.634885023064760912e+00 5.752975873941537643e-02
1.923059567242677570e-01 1.839636035312122146e+02 3.742632076189422285e+00 5.853039942608141699e-02
1.942087450591168940e-01 1.858214200274313725e+02 3.852301130657777239e+00 5.953165951747384221e-02
1.961115333939660310e-01 1.876803204374610345e+02 3.963895917019673920e+00 6.053346046398413310e-02
1.980143217288151958e-01 1.895403129468305110e+02 4.077420045753043176e+00 6.153573107064624903e-02
1.999171100636643605e-01 1.914014056179281340e+02 4.192877020308364067e+00 6.253840750171602014e-02
2.018198983985134976e-01 1.932636063925627639e+02 4.310270250209842224e+00 6.354143328485033215e-02
2.037226867333626346e-01 1.951269230945489426e+02 4.429603064213781138e+00 6.454475931491182594e-02
2.056254750682117993e-01 1.969913634323216343e+02 4.550878723524637515e+00 6.554834385742276670e-02
2.075282634030609641e-01 1.988569350015741861e+02 4.674100435069256321e+00 6.655215255169071031e-02
2.094310517379101011e-01 2.007236452879235458e+02 4.799271364829801989e+00 6.755615841362548613e-02
2.113338400727592381e-01 2.025915016695989266e+02 4.926394651235868061e+00 6.856034183826538453e-02
2.132366284076084029e-01 2.044605114201548020e+02 5.055473418616255543e+00 6.956469060202960519e-02
2.905175135421469990e-01 2.819453202206279911e+02 1.530221691195047917e+01 1.923744623142231158e-01
3.677983986766856228e-01 3.633951554329745477e+02 3.613752269213809143e+01 3.151842340264166542e-01
4.450792838112241911e-01 4.502863483570104108e+02 6.774914158239732842e+01 4.087213287281212248e-01
5.223601689457628705e-01 5.434972493779790739e+02 1.091523914371298076e+02 4.768455597340833796e-01
5.996410540803014388e-01 6.435197286150033733e+02 1.604055102356805094e+02 5.449697907400454788e-01
6.769219392148400072e-01 7.508176961747477662e+02 2.227077796117349635e+02 6.130940217460074670e-01
7.542028243493786865e-01 8.658924075004047154e+02 2.973777428548068542e+02 6.812182527519696773e-01
8.314837094839172549e-01 9.892837152960640879e+02 3.858643109387750201e+02 7.493424837579316655e-01
9.087645946184558232e-01 1.121571931204270413e+03 4.897587739675200282e+02 8.174667147638937648e-01
9.860454797529945026e-01 1.263345059868074941e+03 6.053799991558692000e+02 8.140599614102956849e-01
1.063326364887533071e+00 1.414461716640108534e+03 7.280159769016923974e+02 8.094712932796764848e-01
1.140607250022071639e+00 1.574738763844705772e+03 8.573541904245506657e+02 8.048826251490573958e-01
1.217888135156610208e+00 1.744001892713806683e+03 9.931704981392441596e+02 8.002939570184381957e-01
1.295169020291148998e+00 1.922084994483756645e+03 1.135249733348805648e+03 7.957052888878191066e-01
1.372449905425687566e+00 2.108829197804567229e+03 1.283384782596442847e+03 7.911166207571999065e-01
1.449730790560226135e+00 2.304082076109009449e+03 1.437375822220771170e+03 7.865279526265807064e-01
1.527011675694764703e+00 2.507696986987605669e+03 1.597029678024783834e+03 7.819392844959616173e-01
1.604292560829303271e+00 2.719497951062143329e+03 1.756592553886516043e+03 7.266885603083371725e-01
1.681573445963842062e+00 2.938445965388080367e+03 1.875430233056784573e+03 3.660716864313220409e-01
1.758854331098380630e+00 3.161011069361694354e+03 1.927297496348966206e+03 1.017446151312251940e-01
1.836135216232919198e+00 3.385276278955903308e+03 1.961011247559549247e+03 1.985623031580590059e-01
1.913416101367457767e+00 3.611398671516926697e+03 2.016924624250060560e+03 2.953799911848928317e-01
1.990696986501996335e+00 3.840212202566051019e+03 2.095686379196115922e+03 3.921976792117267130e-01
2.067977871636534903e+00 4.072515234875236729e+03 2.198172192534445912e+03 4.890153672385605388e-01
