# density  energy_density  pressure   sound_speed_squared  [All in nuclear units]
2.720000000000000022e-14 2.529924618736292620e-11 1.061056609100270887e-19 3.766610435412189122e-08
1.269999999999999890e-13 1.181251617980081254e-10 4.870113551826584858e-18 6.497781477172163475e-08
6.929999999999999754e-13 6.445728594625782745e-10 1.018299070687946017e-16 3.033770597342807186e-07
6.295000000000000137e-12 5.855111460395753757e-09 5.487150723824490656e-15 1.763710043904196507e-06
1.581000000000000150e-11 1.470523320212576141e-08 2.904239460150760759e-14 3.559434472327477622e-06
3.971999999999999958e-11 3.694456170323160790e-08 1.439340266754906811e-13 6.772854871245677111e-06
9.975999999999999982e-11 9.278976412613005154e-08 6.812143616221268841e-13 1.246890511177539320e-05
2.505999999999999928e-10 2.330928829758143313e-07 3.107749196951638608e-12 2.212095130576091967e-05
6.294000000000000186e-10 5.854398883216247602e-07 1.363250409771533549e-11 3.761981047239428883e-05
1.581000000000000021e-09 1.470619631082054101e-06 5.726014178088476303e-11 6.095350986710739404e-05
3.971999999999999932e-09 3.694861084648016046e-06 2.210019573374265380e-10 8.628023653304385055e-05
5.000000000000000105e-09 4.651201787816927976e-06 3.071485916280120014e-10 9.387863480799757518e-05
9.975999999999999465e-09 9.280587964640925786e-06 8.385361004129998845e-10 1.356922228656245837e-04
1.989999999999999952e-08 1.851419242998081003e-05 2.287763168863418088e-09 1.782101978513718314e-04
3.972999999999999908e-08 3.696699295748789187e-05 6.061583099087538954e-09 2.308134738384234820e-04
7.925999999999999637e-08 7.375765469301719828e-05 1.575347858094044765e-08 2.960532096713864875e-04
1.580999999999999930e-07 1.471491184379128891e-04 3.910429618672550719e-08 3.402859755131850544e-04
1.991000000000000027e-07 1.853209783927820692e-04 5.252045687899177454e-08 3.626488188833278743e-04
3.155999999999999938e-07 2.938002528823880299e-04 9.730770378831954314e-08 4.630767356912104081e-04
5.000999999999999849e-07 4.656344063839075714e-04 1.837494945860225819e-07 5.430301232045120323e-04
6.295999999999999732e-07 5.862651417037388971e-04 2.503103884558263872e-07 5.605192962670089638e-04
9.666999999999999941e-07 9.003386739730535665e-04 4.324450868778576936e-07 5.993081670211623108e-04
1.531999999999999901e-06 1.427170885631398036e-03 7.780217275717420968e-07 7.125938556504039095e-04
2.506999999999999883e-06 2.336134972129507662e-03 1.471005394641589826e-06 8.121876172121876309e-04
3.974000000000000407e-06 3.704315759716615697e-03 2.695705763844323844e-06 9.780674166779417152e-04
4.830000000000000343e-06 4.502887798316278223e-03 3.503988717694660908e-06 1.046253037768318664e-03
6.080999999999999885e-06 5.670217999231269741e-03 4.731126407333307547e-06 1.056224360839501646e-03
7.930000000000000308e-06 7.396012414119570652e-03 6.599662989063778187e-06 1.109203753630785610e-03
9.982000000000000313e-06 9.311815711689977113e-03 8.879881089227186733e-06 1.271216815433141075e-03
1.256999999999999993e-05 1.172874412604260098e-02 1.207676739913533738e-05 1.374195438212825332e-03
1.521999999999999997e-05 1.420427250933824909e-02 1.547541302213394990e-05 1.371610497379100249e-03
1.991000000000000080e-05 1.858690797761085312e-02 2.160710455847765458e-05 1.426578142835871997e-03
2.506999999999999883e-05 2.341050104039446925e-02 2.908031724375689851e-05 1.672007475975408053e-03
2.790999999999999875e-05 2.606604784714952258e-02 3.357009132255487721e-05 1.709425557744154774e-03
3.806999999999999973e-05 3.556967988784798945e-02 4.986781576435106434e-05 1.720407281314112165e-03
5.063000000000000145e-05 4.732434580343149871e-02 7.073400252905581275e-05 1.829889149838781265e-03
6.592000000000000583e-05 6.164112392498975052e-02 9.765037643900635188e-05 1.930242980462695823e-03
8.433000000000000066e-05 7.888776783401378612e-02 1.317235490470395893e-04 2.021055815200022837e-03
1.062000000000000064e-04 9.938561165478684845e-02 1.740088341640037047e-04 2.104789529260958983e-03
1.321000000000000126e-04 1.236720406455826121e-01 2.260189757651373944e-04 2.178291718403657477e-03
1.623999999999999901e-04 1.520974545104751274e-01 2.888169908545388338e-04 2.240170365918073281e-03
1.689999999999999879e-04 1.582907717069566844e-01 3.027354772999506964e-04 2.254509350360745651e-03
1.758999999999999930e-04 1.647661861691531171e-01 3.173785841705756782e-04 2.268169273277113179e-03
1.830000000000000029e-04 1.714298948183871907e-01 3.325196584577469103e-04 2.276170334580628063e-03
1.901999999999999882e-04 1.781880600978280049e-01 3.479577791899843742e-04 2.292561569242367037e-03
1.977000000000000079e-04 1.852284385240466902e-01 3.641242634600037713e-04 2.299943765467868384e-03
2.054000000000000053e-04 1.924572004474696396e-01 3.808304060475003897e-04 2.322187632288155723e-03
2.079000000000000119e-04 1.948043378760714872e-01 3.864137987380476553e-04 2.435429768083530178e-03
2.081999999999999921e-04 1.950859988578999005e-01 3.870314100985603909e-04 1.950065624557156818e-03
2.090999999999999868e-04 1.959309855029948977e-01 3.881261957135444685e-04 6.411875526909013856e-04
2.159999999999999919e-04 2.024093317906446865e-01 3.940874488768042125e-04 1.199166870571831411e-03
2.231000000000000019e-04 2.090756740932291913e-01 4.013938420547467825e-04 9.928616047829054436e-04
2.311000000000000066e-04 2.165873044433437034e-01 4.085241694843774404e-04 9.056166966301716637e-04
2.401000000000000085e-04 2.250381721984245909e-01 4.159700687886608468e-04 8.565463878902855599e-04
2.500000000000000052e-04 2.343344406330727658e-01 4.237602369176299592e-04 8.194318812157330018e-04
2.642999999999999733e-04 2.477629128650125634e-01 4.345596643180389446e-04 7.890063723638815647e-04
3.052999999999999941e-04 2.862671839140227270e-01 4.644058706720978241e-04 7.612775562167708662e-04
3.533000000000000224e-04 3.313503829113090826e-01 4.987577676308450197e-04 7.626578558207241024e-04
4.075999999999999871e-04 3.823564017794535141e-01 5.381334366106255759e-04 7.813048116943254948e-04
4.679999999999999915e-04 4.390986251953180042e-01 5.832692638200615834e-04 8.096035963157804938e-04
5.341000000000000261e-04 5.012024644415256081e-01 6.346556894078133086e-04 8.452514814113673558e-04
6.059000000000000366e-04 5.686690698184251325e-01 6.930641302632923034e-04 8.862253587289389486e-04
7.661000000000000275e-04 7.192254882508629654e-01 8.328184776562496576e-04 9.702780530519144065e-04
1.262000000000000101e-03 1.185459127778160093e+00 1.338484980802662205e-03 1.198863597978450275e-03
1.894999999999999983e-03 1.780909071169781921e+00 2.123481960401060308e-03 1.437771491635827115e-03
2.673000000000000029e-03 2.513147344746868850e+00 3.261860252001994032e-03 1.671524566936786766e-03
3.605999999999999830e-03 3.391736073717691369e+00 4.828136641022434151e-03 1.893900408978071038e-03
4.709999999999999777e-03 4.431905410739045870e+00 6.903512974832482635e-03 2.096551352830673849e-03
7.496000000000000059e-03 7.058993649504918366e+00 1.289742191321638018e-02 2.466596387205546859e-03
1.119999999999999989e-02 1.055540362104863661e+01 2.212077014004794340e-02 2.809304433764861584e-03
1.600000000000000033e-02 1.509117352747679952e+01 3.559566804390756900e-02 3.132325055719984222e-03
2.206999999999999934e-02 2.083310616724802244e+01 5.457322122755020599e-02 3.477840948757840792e-03
2.947999999999999926e-02 2.785007348564149154e+01 8.049103664263126956e-02 3.909302116317729670e-03
4.268000000000000266e-02 4.036707211535221518e+01 1.353887601042819133e-01 4.862066536253286525e-03
6.219999999999999835e-02 5.891246509830522626e+01 2.419691225623893105e-01 6.630786177272363080e-03
7.316999999999999893e-02 6.935151695866235855e+01 3.161896974764099033e-01 7.588671314871411888e-03
7.595999999999999974e-02 7.200836722020332559e+01 3.371250777904805096e-01 8.170805199905812125e-03
7.685877551020407761e-02 7.286441677731276911e+01 3.442022264811236965e-01 8.363623818542163454e-03
7.775755102040816935e-02 7.372055005017121232e+01 3.514432928690224278e-01 8.552114201896726317e-03
7.865632653061224722e-02 7.457676794565249168e+01 3.588447691411836282e-01 8.736646188037822114e-03
7.955510204081632508e-02 7.543307131161489565e+01 3.664034631134816533e-01 8.917589615033794798e-03
8.045387755102040295e-02 7.628946094246785492e+01 3.741164983437236802e-01 9.095314320952969239e-03
8.135265306122449469e-02 7.714593758449206007e+01 3.819813142525024241e-01 9.270190143863687657e-03
8.225142857142857256e-02 7.800250194092507172e+01 3.899956662510457583e-01 9.442586921834273186e-03
8.315020408163265042e-02 7.885915467682661983e+01 3.981576258753687925e-01 9.612874492933059373e-03
8.404897959183672829e-02 7.971589642373464812e+01 4.064655809261143449e-01 9.781422695228381495e-03
8.494775510204082003e-02 8.057272778412369973e+01 4.149182356135519556e-01 9.948601366788576567e-03
8.584653061224489790e-02 8.142964933567647279e+01 4.235146107072761401e-01 1.011478034568196772e-02
8.674530612244897576e-02 8.228666163537769762e+01 4.322540436902175820e-01 1.028032946997689025e-02
8.764408163265305363e-02 8.314376522344021225e+01 4.411361889166400818e-01 1.044561857774168635e-02
8.854285714285714537e-02 8.400096062707142153e+01 4.501610177738620266e-01 1.061101750704467744e-02
8.944163265306122323e-02 8.485824836408845329e+01 4.593288188474926592e-01 1.077689609595419880e-02
9.034040816326530110e-02 8.571562894639009755e+01 4.686401980900311015e-01 1.094362418253858570e-02
9.123918367346939284e-02 8.657310288329146886e+01 4.780960789927198307e-01 1.111157160486617168e-02
9.213795918367347071e-02 8.743067068472983294e+01 4.876977027605946535e-01 1.128110820100528336e-02
9.303673469387754857e-02 8.828833286434641536e+01 4.974466284907171354e-01 1.145260380902425774e-02
9.393551020408162644e-02 8.914608994245118367e+01 5.073447333536118542e-01 1.162642826699142838e-02
9.483428571428570431e-02 9.000394244887557704e+01 5.173942127779733724e-01 1.180295141297512188e-02
9.573306122448979605e-02 9.086189092571947867e+01 5.275975806387429579e-01 1.198254308504367871e-02
9.663183673469387391e-02 9.171993592999592693e+01 5.379576694486862820e-01 1.216557312126543069e-02
9.753061224489795178e-02 9.257807803618004527e+01 5.484776305536406271e-01 1.235241135970870270e-02
9.842938775510204352e-02 9.343631783866516116e+01 5.591609343316239489e-01 1.254342763844183695e-02
9.932816326530612139e-02 9.429465595413181234e+01 5.700113703960302258e-01 1.273899179553315657e-02
1.002269387755101993e-01 9.515309302383172962e+01 5.810330478031641155e-01 1.293947366905100205e-02
1.011257142857142910e-01 9.601162971579304894e+01 5.922303952643871439e-01 1.314524309706370693e-02
1.020244897959183689e-01 9.687026672694793206e+01 6.036081613631772980e-01 1.335666991763959435e-02
1.029232653061224467e-01 9.772900478518793932e+01 6.151714147774248742e-01 1.357412396884700306e-02
1.038220408163265246e-01 9.858784465134911557e+01 6.269255445073070865e-01 1.379797508875426661e-02
1.047208163265306025e-01 9.944678712113041286e+01 6.388762601091060311e-01 1.402859311542971506e-02
1.056195918367346942e-01 1.003058330269484060e+02 6.510295919353541461e-01 1.426634788694168543e-02
1.065183673469387721e-01 1.011649832397308586e+02 6.633918913817072882e-01 1.451160924135850780e-02
1.074171428571428499e-01 1.020242386706518118e+02 6.759698311409675364e-01 1.476474701674851051e-02
1.083159183673469417e-01 1.028836002728108099e+02 6.887704054646871521e-01 1.502613105118003403e-02
1.092146938775510195e-01 1.037430690428585223e+02 7.018009304328077791e-01 1.529613118272140151e-02
1.101134693877550974e-01 1.046026460225714914e+02 7.150690442318011764e-01 1.557511724944095517e-02
1.110122448979591891e-01 1.054623323003769144e+02 7.285827074417905447e-01 1.586345908940702334e-02
1.119110204081632531e-01 1.063221290128313967e+02 7.423502033331459415e-01 1.616152654068793437e-02
1.128097959183673449e-01 1.071820373460538889e+02 7.563801381730655971e-01 1.646968944135203394e-02
1.137085714285714227e-01 1.080420585371158211e+02 7.706814415426540554e-01 1.678831762946763825e-02
1.146073469387755006e-01 1.089021938753895284e+02 7.852633666650381539e-01 1.711778094310308779e-02
1.155061224489795924e-01 1.097624447038575539e+02 8.001354907450558551e-01 1.745844922032672303e-02
1.164048979591836702e-01 1.106228124203830276e+02 8.153077153210752659e-01 1.781069229920686364e-02
1.173036734693877481e-01 1.114832984789441923e+02 8.307902666295083893e-01 1.817488001781184664e-02
1.182024489795918398e-01 1.123439043908343535e+02 8.465936959825913766e-01 1.855138221421000905e-02
1.191012244897959177e-01 1.132046317258266157e+02 8.627288801600158097e-01 1.894056872646967052e-02
1.199999999999999956e-01 1.140654821133086330e+02 8.792070218150073169e-01 1.934280939265918195e-02
1.236322099647957085e-01 1.175457285844467066e+02 9.495284442756857235e-01 2.106846915711184723e-02
1.272644199295914214e-01 1.210281304677700263e+02 1.025983797250217711e+00 2.284057434300721182e-02
1.308966298943871343e-01 1.245128037124584353e+02 1.108740962243194073e+00 2.465668370080648097e-02
1.345288398591828471e-01 1.279998623866968614e+02 1.197960245383943745e+00 2.651438668354401743e-02
1.381610498239785600e-01 1.314894186268595888e+02 1.293794479673384901e+00 2.841130542181951463e-02
1.417932597887742729e-01 1.349815825947717087e+02 1.396389130448913107e+00 3.034509651762916718e-02
1.454254697535699858e-01 1.384764624420893142e+02 1.505882403668268532e+00 3.231345267036951630e-02
1.490576797183656987e-01 1.419741642809750317e+02 1.622405356656043462e+00 3.431410414633779410e-02
1.526898896831614116e-01 1.454747921603573673e+02 1.746082010991734768e+00 3.634482010137773944e-02
1.563220996479571245e-01 1.489784480471579968e+02 1.877029467247197658e+00 3.840340976491387476e-02
1.599543096127528374e-01 1.524852318119478127e+02 2.015358021304965774e+00 4.048772349243355551e-02
1.635865195775485503e-01 1.559952412185634216e+02 2.161171282007986250e+00 4.259565369247246547e-02
1.672187295423442632e-01 1.595085719172694780e+02 2.314566289906498930e+00 4.472513563330555303e-02
1.708509395071399761e-01 1.630253174411058694e+02 2.475633636879646104e+00 4.687414813381265283e-02
1.744831494719356890e-01 1.665455692050934715e+02 2.644457586418354378e+00 4.904071414235893628e-02
1.781153594367314019e-01 1.700694165080168148e+02 2.821116194362475849e+00 5.122290120698216181e-02
1.817475694015271148e-01 1.735969465365244844e+02 3.005681429889437428e+00 5.341882183970401293e-02
1.853797793663228277e-01 1.771282443713207897e+02 3.198219296553963087e+00 5.562663377736257186e-02
1.890119893311185129e-01 1.806633929952422761e+02 3.398789953179059076e+00 5.784454014099343205e-02
1.926441992959142535e-01 1.842024733030333437e+02 3.607447834397572439e+00 6.007078949545694574e-02
1.962764092607099387e-01 1.877455641126511523e+02 3.824241770641338078e+00 6.230367581071203503e-02
1.999086192255056793e-01 1.912927421779487247e+02 4.049215107371569644e+00 6.454153832586934092e-02
2.035408291903013644e-01 1.948440822025921193e+02 4.282405823339431095e+00 6.678276131691050777e-02
2.071730391550971051e-01 1.983996568550858512e+02 4.523846647660339393e+00 6.902577376873460235e-02
2.108052491198927902e-01 2.019595367847828413e+02 4.773565175478863942e+00 7.126904895198411805e-02
2.144374590846885309e-01 2.055237906387714020e+02 5.031583981993962951e+00 7.351110390490468716e-02
2.180696690494842160e-01 2.090924850795331622e+02 5.297920734605943593e+00 7.575049882030922277e-02
2.217018790142799567e-01 2.126656848032751839e+02 5.572588302937912630e+00 7.798583633753961020e-02
2.253340889790756418e-01 2.162434525588431029e+02 5.855594866474675086e+00 8.021576073915130667e-02
2.289662989438713825e-01 2.198258491671296611e+02 6.146944019552092797e+00 8.243895705188271361e-02
2.325985089086670676e-01 2.234129335408939028e+02 6.446634873418807032e+00 8.465415005131450565e-02
2.362307188734628083e-01 2.270047627049112293e+02 6.754662155081073038e+00 8.686010316947026522e-02
2.398629288382584934e-01 2.306013918163772303e+02 7.071016302629167249e+00 8.905561730445991919e-02
2.434951388030542341e-01 2.342028741854908560e+02 7.395683556731569297e+00 9.123952953112159092e-02
2.471273487678499192e-01 2.378092612961427221e+02 7.728646047969706778e+00 9.341071171147063978e-02
2.507595587326456599e-01 2.414206028266396515e+02 8.069881879672772484e+00 9.556806900362740942e-02
2.543917686974413450e-01 2.450369466703915293e+02 8.419365205897673121e+00 9.771053826775034923e-02
2.580239786622370302e-01 2.486583389564948732e+02 8.777066304184888423e+00 9.983708636736864095e-02
2.616561886270327708e-01 2.522848240701421219e+02 9.142951642705654081e+00 1.019467083643714744e-01
2.652883985918285115e-01 2.559164446727884012e+02 9.516983941400525282e+00 1.040384256057804158e-01
2.689206085566241966e-01 2.595532417220067600e+02 9.899122226693350513e+00 1.061112837003037185e-01
2.725528185214198817e-01 2.631952544909664766e+02 1.028932187934825215e+01 1.081643503825461539e-01
2.761850284862156224e-01 2.668425205874591484e+02 1.068753467502037857e+01 1.101967132626293228e-01
2.798172384510113631e-01 2.704950759724092109e+02 1.109370881703404699e+01 1.122074774588631974e-01
2.834494484158070482e-01 2.741529549777953321e+02 1.150778896090435843e+01 1.141957631110022547e-01
2.870816583806027333e-01 2.778161903239111439e+02 1.192971623010041959e+01 1.161607027715194085e-01
2.907138683453984740e-01 2.814848131358951377e+02 1.235942822253016438e+01 1.181014386722399195e-01
2.943460783101942146e-01 2.851588529594530428e+02 1.279685900720840230e+01 1.200171198635971576e-01
2.979782882749898998e-01 2.888383377757014046e+02 1.324193911055109751e+01 1.219068992237015980e-01
3.735297517795819200e-01 3.675034165380061495e+02 3.400380083519632990e+01 3.963376027040188543e-01
4.490812152841739957e-01 4.521440873613748863e+02 7.282879713211931971e+01 5.147615701899882490e-01
5.246326787887660714e-01 5.437163485668811518e+02 1.095447082893367678e+02 2.973001778324262379e-01
6.001841422933580361e-01 6.395936916911205117e+02 1.349548270971078807e+02 2.343753113236044239e-01
6.757356057979502229e-01 7.393661809603934216e+02 1.892388168427457344e+02 8.255932367957945495e-01
7.512870693025421875e-01 8.479436759654214484e+02 2.769779954691342709e+02 7.934758855891892448e-01
8.268385328071341522e-01 9.655411754291703801e+02 3.682539742066604163e+02 7.613585343825839402e-01
9.023899963117263390e-01 1.091611050111130908e+03 4.620790215796263851e+02 7.292411831759785246e-01
9.779414598163183037e-01 1.225617253572326263e+03 5.575262747281977909e+02 6.971238319693732199e-01
1.053492923320910490e+00 1.367037351779914161e+03 6.537296904092474961e+02 6.650064807627678043e-01
1.129044386825502455e+00 1.515363935673791502e+03 7.498832509123774344e+02 6.328891295561624997e-01
1.204595850330094420e+00 1.670115944699020247e+03 8.460451535061481536e+02 6.107853386751083136e-01
1.280147313834686607e+00 1.830928244030662654e+03 9.437977520651977557e+02 6.052579941208863223e-01
1.355698777339278571e+00 1.997590114335742328e+03 1.044187279622662118e+03 5.997306495666643311e-01
1.431250240843870758e+00 2.169917502889765274e+03 1.147039046614304198e+03 5.942033050124423399e-01
1.506801704348462723e+00 2.347736215216809796e+03 1.252130261547870532e+03 5.880497630896305283e-01
1.582353167853054687e+00 2.530872114017543936e+03 1.358786894642978041e+03 5.770685245781960182e-01
1.657904631357646874e+00 2.719124557960448328e+03 1.466358678690363604e+03 5.660872860667616191e-01
1.733456094862238839e+00 2.912296891116091047e+03 1.574622885961936390e+03 5.551060475553271090e-01
1.809007558366831026e+00 3.110200133278764952e+03 1.683367497241485353e+03 5.441248090438925988e-01
1.884559021871422990e+00 3.312652451735762952e+03 1.792390578456281901e+03 5.331435705324581997e-01
1.960110485376014955e+00 3.519478694091848411e+03 1.901499718852019896e+03 5.221623320210236896e-01
2.035661948880607142e+00 3.730509972560671031e+03 2.010511521661147981e+03 5.111810935095892905e-01
2.111213412385199106e+00 3.945583291969545826e+03 2.119251139898150541e+03 5.001998549981547804e-01
