# density  energy_density  pressure   sound_speed_squared  [All in nuclear units]
2.720000000000000022e-14 2.529924618736292620e-11 1.061056609100270887e-19 3.766610435412189122e-08
1.269999999999999890e-13 1.181251617980081254e-10 4.870113551826584858e-18 6.497781477172163475e-08
6.929999999999999754e-13 6.445728594625782745e-10 1.018299070687946017e-16 3.033770597342807186e-07
6.295000000000000137e-12 5.855111460395753757e-09 5.487150723824490656e-15 1.763710043904196507e-06
1.581000000000000150e-11 1.470523320212576141e-08 2.904239460150760759e-14 3.559434472327477622e-06
3.971999999999999958e-11 3.694456170323160790e-08 1.439340266754906811e-13 6.772854871245677111e-06
9.975999999999999982e-11 9.278976412613005154e-08 6.812143616221268841e-13 1.246890511177539320e-05
2.505999999999999928e-10 2.330928829758143313e-07 3.107749196951638608e-12 2.212095130576091967e-05
6.294000000000000186e-10 5.854398883216247602e-07 1.363250409771533549e-11 3.761981047239428883e-05
1.581000000000000021e-09 1.470619631082054101e-06 5.726014178088476303e-11 6.095350986710739404e-05
3.971999999999999932e-09 3.694861084648016046e-06 2.210019573374265380e-10 8.628023653304385055e-05
5.000000000000000105e-09 4.651201787816927976e-06 3.071485916280120014e-10 9.387863480799757518e-05
9.975999999999999465e-09 9.280587964640925786e-06 8.385361004129998845e-10 1.356922228656245837e-04
1.989999999999999952e-08 1.851419242998081003e-05 2.287763168863418088e-09 1.782101978513718314e-04
3.972999999999999908e-08 3.696699295748789187e-05 6.061583099087538954e-09 2.308134738384234820e-04
7.925999999999999637e-08 7.375765469301719828e-05 1.575347858094044765e-08 2.960532096713864875e-04
1.580999999999999930e-07 1.471491184379128891e-04 3.910429618672550719e-08 3.402859755131850544e-04
1.991000000000000027e-07 1.853209783927820692e-04 5.252045687899177454e-08 3.626488188833278743e-04
3.155999999999999938e-07 2.938002528823880299e-04 9.730770378831954314e-08 4.630767356912104081e-04
5.000999999999999849e-07 4.656344063839075714e-04 1.837494945860225819e-07 5.430301232045120323e-04
6.295999999999999732e-07 5.862651417037388971e-04 2.503103884558263872e-07 5.605192962670089638e-04
9.666999999999999941e-07 9.003386739730535665e-04 4.324450868778576936e-07 5.993081670211623108e-04
1.531999999999999901e-06 1.427170885631398036e-03 7.780217275717420968e-07 7.125938556504039095e-04
2.506999999999999883e-06 2.336134972129507662e-03 1.471005394641589826e-06 8.121876172121876309e-04
3.974000000000000407e-06 3.704315759716615697e-03 2.695705763844323844e-06 9.780674166779417152e-04
4.830000000000000343e-06 4.502887798316278223e-03 3.503988717694660908e-06 1.046253037768318664e-03
6.080999999999999885e-06 5.670217999231269741e-03 4.731126407333307547e-06 1.056224360839501646e-03
7.930000000000000308e-06 7.396012414119570652e-03 6.599662989063778187e-06 1.109203753630785610e-03
9.982000000000000313e-06 9.311815711689977113e-03 8.879881089227186733e-06 1.271216815433141075e-03
1.256999999999999993e-05 1.172874412604260098e-02 1.207676739913533738e-05 1.374195438212825332e-03
1.521999999999999997e-05 1.420427250933824909e-02 1.547541302213394990e-05 1.371610497379100249e-03
1.991000000000000080e-05 1.858690797761085312e-02 2.160710455847765458e-05 1.426578142835871997e-03
2.506999999999999883e-05 2.341050104039446925e-02 2.908031724375689851e-05 1.672007475975408053e-03
2.790999999999999875e-05 2.606604784714952258e-02 3.357009132255487721e-05 1.709425557744154774e-03
3.806999999999999973e-05 3.556967988784798945e-02 4.986781576435106434e-05 1.720407281314112165e-03
5.063000000000000145e-05 4.732434580343149871e-02 7.073400252905581275e-05 1.829889149838781265e-03
6.592000000000000583e-05 6.164112392498975052e-02 9.765037643900635188e-05 1.930242980462695823e-03
8.433000000000000066e-05 7.888776783401378612e-02 1.317235490470395893e-04 2.021055815200022837e-03
1.062000000000000064e-04 9.938561165478684845e-02 1.740088341640037047e-04 2.104789529260958983e-03
1.321000000000000126e-04 1.236720406455826121e-01 2.260189757651373944e-04 2.178291718403657477e-03
1.623999999999999901e-04 1.520974545104751274e-01 2.888169908545388338e-04 2.240170365918073281e-03
1.689999999999999879e-04 1.582907717069566844e-01 3.027354772999506964e-04 2.254509350360745651e-03
1.758999999999999930e-04 1.647661861691531171e-01 3.173785841705756782e-04 2.268169273277113179e-03
1.830000000000000029e-04 1.714298948183871907e-01 3.325196584577469103e-04 2.276170334580628063e-03
1.901999999999999882e-04 1.781880600978280049e-01 3.479577791899843742e-04 2.292561569242367037e-03
1.977000000000000079e-04 1.852284385240466902e-01 3.641242634600037713e-04 2.299943765467868384e-03
2.054000000000000053e-04 1.924572004474696396e-01 3.808304060475003897e-04 2.322187632288155723e-03
2.079000000000000119e-04 1.948043378760714872e-01 3.864137987380476553e-04 2.435429768083530178e-03
2.081999999999999921e-04 1.950859988578999005e-01 3.870314100985603909e-04 1.950065624557156818e-03
2.090999999999999868e-04 1.959309855029948977e-01 3.881261957135444685e-04 6.411875526909013856e-04
2.159999999999999919e-04 2.024093317906446865e-01 3.940874488768042125e-04 1.199166870571831411e-03
2.231000000000000019e-04 2.090756740932291913e-01 4.013938420547467825e-04 9.928616047829054436e-04
2.311000000000000066e-04 2.165873044433437034e-01 4.085241694843774404e-04 9.056166966301716637e-04
2.401000000000000085e-04 2.250381721984245909e-01 4.159700687886608468e-04 8.565463878902855599e-04
2.500000000000000052e-04 2.343344406330727658e-01 4.237602369176299592e-04 8.194318812157330018e-04
2.642999999999999733e-04 2.477629128650125634e-01 4.345596643180389446e-04 7.890063723638815647e-04
3.052999999999999941e-04 2.862671839140227270e-01 4.644058706720978241e-04 7.612775562167708662e-04
3.533000000000000224e-04 3.313503829113090826e-01 4.987577676308450197e-04 7.626578558207241024e-04
4.075999999999999871e-04 3.823564017794535141e-01 5.381334366106255759e-04 7.813048116943254948e-04
4.679999999999999915e-04 4.390986251953180042e-01 5.832692638200615834e-04 8.096035963157804938e-04
5.341000000000000261e-04 5.012024644415256081e-01 6.346556894078133086e-04 8.452514814113673558e-04
6.059000000000000366e-04 5.686690698184251325e-01 6.930641302632923034e-04 8.862253587289389486e-04
7.661000000000000275e-04 7.192254882508629654e-01 8.328184776562496576e-04 9.702780530519144065e-04
1.262000000000000101e-03 1.185459127778160093e+00 1.338484980802662205e-03 1.198863597978450275e-03
1.894999999999999983e-03 1.780909071169781921e+00 2.123481960401060308e-03 1.437771491635827115e-03
2.673000000000000029e-03 2.513147344746868850e+00 3.261860252001994032e-03 1.671524566936786766e-03
3.605999999999999830e-03 3.391736073717691369e+00 4.828136641022434151e-03 1.893900408978071038e-03
4.709999999999999777e-03 4.431905410739045870e+00 6.903512974832482635e-03 2.096551352830673849e-03
7.496000000000000059e-03 7.058993649504918366e+00 1.289742191321638018e-02 2.466596387205546859e-03
1.119999999999999989e-02 1.055540362104863661e+01 2.212077014004794340e-02 2.809304433764861584e-03
1.600000000000000033e-02 1.509117352747679952e+01 3.559566804390756900e-02 3.132325055719984222e-03
2.206999999999999934e-02 2.083310616724802244e+01 5.457322122755020599e-02 3.477840948757840792e-03
2.947999999999999926e-02 2.785007348564149154e+01 8.049103664263126956e-02 3.909302116317729670e-03
4.268000000000000266e-02 4.036707211535221518e+01 1.353887601042819133e-01 4.862066536253286525e-03
6.219999999999999835e-02 5.891246509830522626e+01 2.419691225623893105e-01 6.630786177272363080e-03
7.316999999999999893e-02 6.935151695866235855e+01 3.161896974764099033e-01 7.588671314871411888e-03
7.595999999999999974e-02 7.200836722020332559e+01 3.371250777904805096e-01 8.170805199905812125e-03
7.685877551020407761e-02 7.286441682449610369e+01 3.442103011541850499e-01 8.382486939457475111e-03
7.775755102040816935e-02 7.372055036346675649e+01 3.514808674531242905e-01 8.602158520388694316e-03
7.865632653061224722e-02 7.457676904862897516e+01 3.589436072290825286e-01 8.829686171028250374e-03
7.955510204081632508e-02 7.543307414122955379e+01 3.666052397559967924e-01 9.064936119704949946e-03
8.045387755102040295e-02 7.628946694930529304e+01 3.744723730711869147e-01 9.307774594747592750e-03
8.135265306122449469e-02 7.714594882487229199e+01 3.825515040063245387e-01 9.558067824484973302e-03
8.225142857142857256e-02 7.800252116123985502e+01 3.908490182178103178e-01 9.815682037245884381e-03
8.315020408163265042e-02 7.885918539044169506e+01 3.993711902162574989e-01 1.008048346135912744e-02
8.404897959183672829e-02 7.971594298077906160e+01 4.081241833947995001e-01 1.035233832515350394e-02
8.494775510204082003e-02 8.057279543446894365e+01 4.171140500559647468e-01 1.063111285695780318e-02
8.584653061224489790e-02 8.142974428539199039e+01 4.263467314368791783e-01 1.091667328510082489e-02
8.674530612244897576e-02 8.228679109693538862e+01 4.358280577325796545e-01 1.120888583791136879e-02
8.764408163265305363e-02 8.314393745992504137e+01 4.455637481172335934e-01 1.150761674371823286e-02
8.854285714285714537e-02 8.400118499064305411e+01 4.555594107630825396e-01 1.181273223085021508e-02
8.944163265306122323e-02 8.485853532892549822e+01 4.658205428569376916e-01 1.212409852763610303e-02
9.034040816326530110e-02 8.571599013633733932e+01 4.763525306140752313e-01 1.244158186240470684e-02
9.123918367346939284e-02 8.657355109441957097e+01 4.871606492893860163e-01 1.276504846348481409e-02
9.213795918367347071e-02 8.743121990300595314e+01 4.982500631856522366e-01 1.309436455920522969e-02
9.303673469387754857e-02 8.828899827860536220e+01 5.096258256588347413e-01 1.342939637789474817e-02
9.393551020408162644e-02 8.914688795284635603e+01 5.212928791202614542e-01 1.377001014788216404e-02
9.483428571428570431e-02 9.000489067098210683e+01 5.332560550356237883e-01 1.411607209749627528e-02
9.573306122448979605e-02 9.086300819045085575e+01 5.455200739206927940e-01 1.446744845506589029e-02
9.663183673469387391e-02 9.172124227949143460e+01 5.580895453336782719e-01 1.482400544891978623e-02
9.753061224489795178e-02 9.257959471580957711e+01 5.709689678641632904e-01 1.518560930738677497e-02
9.842938775510204352e-02 9.343806728529351346e+01 5.841627291185512716e-01 1.555212625879565796e-02
9.932816326530612139e-02 9.429666178077613381e+01 5.976751057019736857e-01 1.592342253147521411e-02
1.002269387755101993e-01 9.515538000084224279e+01 6.115102631966142788e-01 1.629936435375425527e-02
1.011257142857142910e-01 9.601422374867767928e+01 6.256722561364067570e-01 1.667981795396157943e-02
1.020244897959183689e-01 9.687319483095976125e+01 6.401650279780756181e-01 1.706464956042597070e-02
1.029232653061224467e-01 9.773229505678618523e+01 6.549924110684943734e-01 1.745372540147623747e-02
1.038220408163265246e-01 9.859152623664131454e+01 6.701581266083364019e-01 1.784691170544117425e-02
1.047208163265306025e-01 9.945089018139741199e+01 6.856657846120053357e-01 1.824407470064957903e-02
1.056195918367346942e-01 1.003103887013505755e+02 7.015188838638337643e-01 1.864508061543025674e-02
1.065183673469387721e-01 1.011700236052884634e+02 7.177208118705421525e-01 1.904979567811199148e-02
1.074171428571428499e-01 1.020297966995894114e+02 7.342748448099600811e-01 1.945808611702358470e-02
1.083159183673469417e-01 1.028897097873510234e+02 7.511841474760088122e-01 1.986981816049383440e-02
1.092146938775510195e-01 1.037497646675472680e+02 7.684517732199528384e-01 2.028485803685153854e-02
1.101134693877550974e-01 1.046099631342132881e+02 7.860806638879342945e-01 2.070307197442550207e-02
1.110122448979591891e-01 1.054703069756552054e+02 8.040736497547988915e-01 2.112432620154450907e-02
1.119110204081632531e-01 1.063307979736865434e+02 8.224334494542342444e-01 2.154848694653735755e-02
1.128097959183673449e-01 1.071914379028870314e+02 8.411626699052447975e-01 2.197542043773285936e-02
1.137085714285714227e-01 1.080522285298852267e+02 8.602638062349767800e-01 2.240499290345979860e-02
1.146073469387755006e-01 1.089131716126634757e+02 8.797392416979347152e-01 2.283707057204697327e-02
1.155061224489795924e-01 1.097742688998833671e+02 8.995912475916073570e-01 2.327151967182318829e-02
1.164048979591836702e-01 1.106355221302315215e+02 9.198219831685403580e-01 2.370820643111723122e-02
1.173036734693877481e-01 1.114969330317857157e+02 9.404334955448929723e-01 2.414699707825791047e-02
1.182024489795918398e-01 1.123585033213989703e+02 9.614277196055116548e-01 2.458775784157401709e-02
1.191012244897959177e-01 1.132202347041015855e+02 9.828064779055625255e-01 2.503035494939434558e-02
1.199999999999999956e-01 1.140821288725209683e+02 1.004571480568767328e+00 2.547465463004770087e-02
1.225012456211230921e-01 1.164816108005496886e+02 1.067191070527482522e+00 2.671930831814156929e-02
1.250024912422461887e-01 1.188824021525373240e+02 1.132846453371241235e+00 2.797517050796343233e-02
1.275037368633692991e-01 1.212845377684089954e+02 1.201566946600008068e+00 2.924067855773404556e-02
1.300049824844924096e-01 1.236880516609594025e+02 1.273378247633444316e+00 3.051425875936891394e-02
1.325062281056154923e-01 1.260929769935835481e+02 1.348302396304188022e+00 3.179432693156892392e-02
1.350074737267386027e-01 1.284993460589859922e+02 1.426357737957764327e+00 3.307928898116405808e-02
1.375087193478617131e-01 1.309071902587903367e+02 1.507558887112791624e+00 3.436754143325917304e-02
1.400099649689848236e-01 1.333165400839752976e+02 1.591916691637557113e+00 3.565747193061116760e-02
1.425112105901079063e-01 1.357274250960724089e+02 1.679438197401054822e+00 3.694745970256035211e-02
1.450124562112310167e-01 1.381398739090688821e+02 1.770126613358331324e+00 3.823587600375129986e-02
1.475137018323541271e-01 1.405539141719577287e+02 1.863981277031417028e+00 3.952108452279447931e-02
1.500149474534772098e-01 1.429695725518908773e+02 1.960997620348363002e+00 4.080144176095521630e-02
1.525161930746003203e-01 1.453868747178877925e+02 2.061167135803868788e+00 4.207529738089497984e-02
1.550174386957234307e-01 1.478058453250602327e+02 2.164477342905782198e+00 4.334099452543775655e-02
1.575186843168465134e-01 1.502265079993158849e+02 2.270911754872392496e+00 4.459687010628891890e-02
1.600199299379696238e-01 1.526488853225059472e+02 2.380449845545877352e+00 4.584125506259316418e-02
1.625211755590927343e-01 1.550729988179855354e+02 2.493067016487569898e+00 4.707247458918274036e-02
1.650224211802158170e-01 1.574988689365570735e+02 2.608734564220930086e+00 4.828884833433518681e-02
1.675236668013389274e-01 1.599265150427713991e+02 2.727419647588138485e+00 4.948869056683141698e-02
1.700249124224620378e-01 1.623559554015578783e+02 2.849085255186185606e+00 5.067031031207874098e-02
1.725261580435851205e-01 1.647872071651644603e+02 2.973690172848217461e+00 5.183201145704072893e-02
1.750274036647082310e-01 1.672202863603823744e+02 3.101188951135633864e+00 5.297209282369238353e-02
1.775286492858313414e-01 1.696552078760358597e+02 3.231531872806110872e+00 5.408884821069982057e-02
1.800298949069544241e-01 1.720919854507186812e+02 3.364664920222356415e+00 5.518056640300304100e-02
1.825311405280775345e-01 1.745306316607587576e+02 3.500529742665906774e+00 5.624553114896187200e-02
1.850323861492006450e-01 1.769711579083917457e+02 3.639063623519720903e+00 5.728202110470600322e-02
1.875336317703237277e-01 1.794135744101314174e+02 3.780199447282774461e+00 5.828830974531144793e-02
1.900348773914468381e-01 1.818578901853170464e+02 3.923865666379144912e+00 5.926266524240675349e-02
1.925361230125699485e-01 1.843041130448261242e+02 4.069986267723360918e+00 6.020335030779327967e-02
1.950373686336930312e-01 1.867522495799368301e+02 4.218480739003048541e+00 6.110862200264328276e-02
1.975386142548161694e-01 1.892023051513269252e+02 4.369264034639047445e+00 6.197673151181899015e-02
2.000398598759392521e-01 1.916542838781966509e+02 4.522246541382267004e+00 6.280592388283399996e-02
2.025411054970623348e-01 1.941081886275027273e+02 4.677334043505719130e+00 6.359443772895528868e-02
2.050423511181854730e-01 1.965640210032907476e+02 4.834427687549055719e+00 6.434050489591930377e-02
2.075435967393085557e-01 1.990217813361155663e+02 4.993423946572018046e+00 6.504235009171008275e-02
2.100448423604316661e-01 2.014814686725368347e+02 5.154214583872138711e+00 6.569819047881922391e-02
2.125460879815547766e-01 2.039430807646789674e+02 5.316686616120817277e+00 6.630623522837872375e-02
2.150473336026778592e-01 2.064066140598455945e+02 5.480722275870889781e+00 6.686468503552560338e-02
2.175485792238009697e-01 2.088720636901763612e+02 5.646198973387495101e+00 6.737173159532364175e-02
2.200498248449240801e-01 2.113394234623358727e+02 5.812989257752832373e+00 6.782555703853299089e-02
2.225510704660471628e-01 2.138086858472252629e+02 5.980960777194157529e+00 6.822433332647859228e-02
2.250523160871702733e-01 2.162798419697047905e+02 6.149976238582980592e+00 6.856622160422902457e-02
2.275535617082933837e-01 2.187528815983191919e+02 6.319893366052066419e+00 6.884937151125369859e-02
2.300548073294164664e-01 2.212277931350128597e+02 6.490564858675460513e+00 6.907192044868029623e-02
2.325560529505395768e-01 2.237045636048275981e+02 6.661838347155251583e+00 6.923199280222561147e-02
2.350572985716626873e-01 2.261831786455720419e+02 6.833556349457285073e+00 6.932769911982085420e-02
2.375585441927857699e-01 2.286636224974509730e+02 7.005556225336524889e+00 6.935713524289791043e-02
2.400597898139088804e-01 2.311458779926481384e+02 7.177670129691113843e+00 6.931838139024402989e-02
2.425610354350319908e-01 2.336299265448484164e+02 7.349724964682554429e+00 6.920950119327141936e-02
3.192434632832966690e-01 3.123390657370725876e+02 3.010303806138640681e+01 4.891398095282951108e-01
3.959258911315612917e-01 3.991599219903072822e+02 7.042267095599039806e+01 4.442661598071400153e-01
4.726083189798259143e-01 4.936347808703706050e+02 1.072920190798838291e+02 3.418730809979928509e-01
5.492907468280905370e-01 5.934116278510031179e+02 1.350479416764853795e+02 2.180871272950078987e-01
6.259731746763552707e-01 6.963769597212940425e+02 1.533259147654556500e+02 1.381272400545038581e-01
7.026556025246198933e-01 8.013273174873683047e+02 1.679693309563250807e+02 1.409435091725924072e-01
7.793380303728845160e-01 9.079067027287956080e+02 1.831404542360662617e+02 1.437597782906809840e-01
8.560204582211492497e-01 1.016006057970181132e+03 1.988325629413701847e+02 1.465760474087695331e-01
9.327028860694137613e-01 1.125535431391817838e+03 2.150408628209597452e+02 1.493923165268580822e-01
1.009385313917678495e+00 1.236419379476341874e+03 2.317620008773610323e+02 1.522085856449466312e-01
1.086067741765943229e+00 1.348593743267749460e+03 2.489937288869599854e+02 1.550248547630351803e-01
1.162750169614207740e+00 1.462003319064627249e+03 2.667346632899609631e+02 1.578411238811237571e-01
1.239432597462472474e+00 1.576600132379066508e+03 2.849841094021336403e+02 1.606573929992123062e-01
1.316115025310737208e+00 1.692342131063702254e+03 3.037419298799873104e+02 1.634736621173008553e-01
1.392797453159001719e+00 1.809192177213449895e+03 3.230084444319056161e+02 1.662899312353894044e-01
1.469479881007266453e+00 1.927117256790346801e+03 3.427843520913784801e+02 1.691062003534779534e-01
1.546162308855531187e+00 2.046087851010729310e+03 3.630706701042969939e+02 1.719224694715665303e-01
1.622844736703795698e+00 2.166077429991297322e+03 3.838686852635744913e+02 1.747387385896550793e-01
1.699527164552060432e+00 2.287062040215212619e+03 4.051799147136185866e+02 1.775550077077436284e-01
1.776209592400324944e+00 2.409019964983269347e+03 4.270060740590252522e+02 1.803712768258321775e-01
1.852892020248589677e+00 2.531931442344128754e+03 4.493490511771706792e+02 1.831875459439207265e-01
1.929574448096854411e+00 2.655778428798611458e+03 4.722108845350797424e+02 1.860038150620093034e-01
2.006256875945118701e+00 2.780544399827972939e+03 4.955937450995926952e+02 1.888200841800978247e-01
2.082939303793383434e+00 2.906214180321563163e+03 5.194999211408254496e+02 1.916363532981864015e-01
