# density  energy_density  pressure   sound_speed_squared  [All in nuclear units]
2.720000000000000022e-14 2.529924618736292620e-11 1.061056609100270887e-19 3.766610435412189122e-08
1.269999999999999890e-13 1.181251617980081254e-10 4.870113551826584858e-18 6.497781477172163475e-08
6.929999999999999754e-13 6.445728594625782745e-10 1.018299070687946017e-16 3.033770597342807186e-07
6.295000000000000137e-12 5.855111460395753757e-09 5.487150723824490656e-15 1.763710043904196507e-06
1.581000000000000150e-11 1.470523320212576141e-08 2.904239460150760759e-14 3.559434472327477622e-06
3.971999999999999958e-11 3.694456170323160790e-08 1.439340266754906811e-13 6.772854871245677111e-06
9.975999999999999982e-11 9.278976412613005154e-08 6.812143616221268841e-13 1.246890511177539320e-05
2.505999999999999928e-10 2.330928829758143313e-07 3.107749196951638608e-12 2.212095130576091967e-05
6.294000000000000186e-10 5.854398883216247602e-07 1.363250409771533549e-11 3.761981047239428883e-05
1.581000000000000021e-09 1.470619631082054101e-06 5.726014178088476303e-11 6.095350986710739404e-05
3.971999999999999932e-09 3.694861084648016046e-06 2.210019573374265380e-10 8.628023653304385055e-05
5.000000000000000105e-09 4.651201787816927976e-06 3.071485916280120014e-10 9.387863480799757518e-05
9.975999999999999465e-09 9.280587964640925786e-06 8.385361004129998845e-10 1.356922228656245837e-04
1.989999999999999952e-08 1.851419242998081003e-05 2.287763168863418088e-09 1.782101978513718314e-04
3.972999999999999908e-08 3.696699295748789187e-05 6.061583099087538954e-09 2.308134738384234820e-04
7.925999999999999637e-08 7.375765469301719828e-05 1.575347858094044765e-08 2.960532096713864875e-04
1.580999999999999930e-07 1.471491184379128891e-04 3.910429618672550719e-08 3.402859755131850544e-04
1.991000000000000027e-07 1.853209783927820692e-04 5.252045687899177454e-08 3.626488188833278743e-04
3.155999999999999938e-07 2.938002528823880299e-04 9.730770378831954314e-08 4.630767356912104081e-04
5.000999999999999849e-07 4.656344063839075714e-04 1.837494945860225819e-07 5.430301232045120323e-04
6.295999999999999732e-07 5.862651417037388971e-04 2.503103884558263872e-07 5.605192962670089638e-04
9.666999999999999941e-07 9.003386739730535665e-04 4.324450868778576936e-07 5.993081670211623108e-04
1.531999999999999901e-06 1.427170885631398036e-03 7.780217275717420968e-07 7.125938556504039095e-04
2.506999999999999883e-06 2.336134972129507662e-03 1.471005394641589826e-06 8.121876172121876309e-04
3.974000000000000407e-06 3.704315759716615697e-03 2.695705763844323844e-06 9.780674166779417152e-04
4.830000000000000343e-06 4.502887798316278223e-03 3.503988717694660908e-06 1.046253037768318664e-03
6.080999999999999885e-06 5.670217999231269741e-03 4.731126407333307547e-06 1.056224360839501646e-03
7.930000000000000308e-06 7.396012414119570652e-03 6.599662989063778187e-06 1.109203753630785610e-03
9.982000000000000313e-06 9.311815711689977113e-03 8.879881089227186733e-06 1.271216815433141075e-03
1.256999999999999993e-05 1.172874412604260098e-02 1.207676739913533738e-05 1.374195438212825332e-03
1.521999999999999997e-05 1.420427250933824909e-02 1.547541302213394990e-05 1.371610497379100249e-03
1.991000000000000080e-05 1.858690797761085312e-02 2.160710455847765458e-05 1.426578142835871997e-03
2.506999999999999883e-05 2.341050104039446925e-02 2.908031724375689851e-05 1.672007475975408053e-03
2.790999999999999875e-05 2.606604784714952258e-02 3.357009132255487721e-05 1.709425557744154774e-03
3.806999999999999973e-05 3.556967988784798945e-02 4.986781576435106434e-05 1.720407281314112165e-03
5.063000000000000145e-05 4.732434580343149871e-02 7.073400252905581275e-05 1.829889149838781265e-03
6.592000000000000583e-05 6.164112392498975052e-02 9.765037643900635188e-05 1.930242980462695823e-03
8.433000000000000066e-05 7.888776783401378612e-02 1.317235490470395893e-04 2.021055815200022837e-03
1.062000000000000064e-04 9.938561165478684845e-02 1.740088341640037047e-04 2.104789529260958983e-03
1.321000000000000126e-04 1.236720406455826121e-01 2.260189757651373944e-04 2.178291718403657477e-03
1.623999999999999901e-04 1.520974545104751274e-01 2.888169908545388338e-04 2.240170365918073281e-03
1.689999999999999879e-04 1.582907717069566844e-01 3.027354772999506964e-04 2.254509350360745651e-03
1.758999999999999930e-04 1.647661861691531171e-01 3.173785841705756782e-04 2.268169273277113179e-03
1.830000000000000029e-04 1.714298948183871907e-01 3.325196584577469103e-04 2.276170334580628063e-03
1.901999999999999882e-04 1.781880600978280049e-01 3.479577791899843742e-04 2.292561569242367037e-03
1.977000000000000079e-04 1.852284385240466902e-01 3.641242634600037713e-04 2.299943765467868384e-03
2.054000000000000053e-04 1.924572004474696396e-01 3.808304060475003897e-04 2.322187632288155723e-03
2.079000000000000119e-04 1.948043378760714872e-01 3.864137987380476553e-04 2.435429768083530178e-03
2.081999999999999921e-04 1.950859988578999005e-01 3.870314100985603909e-04 1.950065624557156818e-03
2.090999999999999868e-04 1.959309855029948977e-01 3.881261957135444685e-04 6.411875526909013856e-04
2.159999999999999919e-04 2.024093317906446865e-01 3.940874488768042125e-04 1.199166870571831411e-03
2.231000000000000019e-04 2.090756740932291913e-01 4.013938420547467825e-04 9.928616047829054436e-04
2.311000000000000066e-04 2.165873044433437034e-01 4.085241694843774404e-04 9.056166966301716637e-04
2.401000000000000085e-04 2.250381721984245909e-01 4.159700687886608468e-04 8.565463878902855599e-04
2.500000000000000052e-04 2.343344406330727658e-01 4.237602369176299592e-04 8.194318812157330018e-04
2.642999999999999733e-04 2.477629128650125634e-01 4.345596643180389446e-04 7.890063723638815647e-04
3.052999999999999941e-04 2.862671839140227270e-01 4.644058706720978241e-04 7.612775562167708662e-04
3.533000000000000224e-04 3.313503829113090826e-01 4.987577676308450197e-04 7.626578558207241024e-04
4.075999999999999871e-04 3.823564017794535141e-01 5.381334366106255759e-04 7.813048116943254948e-04
4.679999999999999915e-04 4.390986251953180042e-01 5.832692638200615834e-04 8.096035963157804938e-04
5.341000000000000261e-04 5.012024644415256081e-01 6.346556894078133086e-04 8.452514814113673558e-04
6.059000000000000366e-04 5.686690698184251325e-01 6.930641302632923034e-04 8.862253587289389486e-04
7.661000000000000275e-04 7.192254882508629654e-01 8.328184776562496576e-04 9.702780530519144065e-04
1.262000000000000101e-03 1.185459127778160093e+00 1.338484980802662205e-03 1.198863597978450275e-03
1.894999999999999983e-03 1.780909071169781921e+00 2.123481960401060308e-03 1.437771491635827115e-03
2.673000000000000029e-03 2.513147344746868850e+00 3.261860252001994032e-03 1.671524566936786766e-03
3.605999999999999830e-03 3.391736073717691369e+00 4.828136641022434151e-03 1.893900408978071038e-03
4.709999999999999777e-03 4.431905410739045870e+00 6.903512974832482635e-03 2.096551352830673849e-03
7.496000000000000059e-03 7.058993649504918366e+00 1.289742191321638018e-02 2.466596387205546859e-03
1.119999999999999989e-02 1.055540362104863661e+01 2.212077014004794340e-02 2.809304433764861584e-03
1.600000000000000033e-02 1.509117352747679952e+01 3.559566804390756900e-02 3.132325055719984222e-03
2.206999999999999934e-02 2.083310616724802244e+01 5.457322122755020599e-02 3.477840948757840792e-03
2.947999999999999926e-02 2.785007348564149154e+01 8.049103664263126956e-02 3.909302116317729670e-03
4.268000000000000266e-02 4.036707211535221518e+01 1.353887601042819133e-01 4.862066536253286525e-03
6.219999999999999835e-02 5.891246509830522626e+01 2.419691225623893105e-01 6.630786177272363080e-03
7.316999999999999893e-02 6.935151695866235855e+01 3.161896974764099033e-01 7.588671314871411888e-03
7.595999999999999974e-02 7.200836722020332559e+01 3.371250777904805096e-01 8.170805199905810390e-03
7.685877551020407761e-02 7.286441680718999692e+01 3.442073394664156294e-01 8.375568186195388870e-03
7.775755102040816935e-02 7.372055024863915662e+01 3.514671002079620132e-01 8.583837092405502064e-03
7.865632653061224722e-02 7.457676864475808998e+01 3.589074443530329561e-01 8.795701403858366407e-03
7.955510204081632508e-02 7.543307310630042650e+01 3.665315345585292706e-01 9.011250605876227823e-03
8.045387755102040295e-02 7.628946475509403058e+01 3.743426118689628379e-01 9.230574183781313155e-03
8.135265306122449469e-02 7.714594472454604102e+01 3.823439957868391414e-01 9.453761622895852715e-03
8.225142857142857256e-02 7.800251416012592642e+01 3.905390843448284244e-01 9.680902408542078549e-03
8.315020408163265042e-02 7.885917421982911435e+01 3.989313541797596674e-01 9.912086026042224440e-03
8.404897959183672829e-02 7.971592607462073943e+01 4.075243606084681947e-01 1.014740196071851723e-02
8.494775510204082003e-02 8.057277090886104531e+01 4.163217377055328239e-01 1.038693969789319591e-02
8.584653061224489790e-02 8.142970992071430203e+01 4.253271983829353675e-01 1.063078872288848037e-02
8.674530612244897576e-02 8.228674432254108240e+01 4.345445344716810099e-01 1.087903852102660961e-02
8.764408163265305363e-02 8.314387534127475021e+01 4.439776168054125338e-01 1.113177857762981393e-02
8.854285714285714537e-02 8.400110421878419231e+01 4.536303953060574212e-01 1.138909837802033406e-02
8.944163265306122323e-02 8.485843221222206978e+01 4.635068990715442983e-01 1.165108740752038123e-02
9.034040816326530110e-02 8.571586059436002358e+01 4.736112364656287488e-01 1.191783515145219963e-02
9.123918367346939284e-02 8.657339065391191468e+01 4.839475952098646339e-01 1.218943109513802303e-02
9.213795918367347071e-02 8.743102369584457279e+01 4.945202424777615513e-01 1.246596472390007829e-02
9.303673469387754857e-02 8.828876104167767380e+01 5.053335249911697913e-01 1.274752552306059050e-02
9.393551020408162644e-02 8.914660402977330023e+01 5.163918691189299803e-01 1.303420297794180213e-02
9.483428571428570431e-02 9.000455401561484337e+01 5.276997809778308790e-01 1.332608657386593655e-02
9.573306122448979605e-02 9.086261237207635588e+01 5.392618465359153568e-01 1.362326579615523968e-02
9.663183673469387391e-02 9.172078048968315045e+01 5.510827317181759000e-01 1.392583013013192102e-02
9.753061224489795178e-02 9.257905977686334609e+01 5.631671825146843391e-01 1.423386906111822475e-02
9.842938775510204352e-02 9.343745166019135695e+01 5.755200250911945981e-01 1.454747207443638640e-02
9.932816326530612139e-02 9.429595758462328092e+01 5.881461659022634292e-01 1.486672865540862587e-02
1.002269387755101993e-01 9.515457901372499805e+01 6.010505918069342091e-01 1.519172828935718388e-02
1.011257142857142910e-01 9.601331742989314932e+01 6.142383701870235413e-01 1.552256046160429420e-02
1.020244897959183689e-01 9.687217433456919480e+01 6.277146490680569624e-01 1.585931465747216981e-02
1.029232653061224467e-01 9.773115124844689205e+01 6.414846572428998250e-01 1.620208036228305490e-02
1.038220408163265246e-01 9.859024971167427509e+01 6.555537043981244372e-01 1.655094706135918498e-02
1.047208163265306025e-01 9.944947128404861303e+01 6.699271812431608630e-01 1.690600424002278862e-02
1.056195918367346942e-01 1.003088175452068924e+02 6.846105596422770168e-01 1.726734138359609788e-02
1.065183673469387721e-01 1.011682900948104020e+02 6.996093927494312359e-01 1.763504797740133787e-02
1.074171428571428499e-01 1.020278905527240880e+02 7.149293151460479612e-01 1.800921350676074062e-02
1.083159183673469417e-01 1.028876205591917454e+02 7.305760429817578228e-01 1.838992745699654513e-02
1.092146938775510195e-01 1.037474817750058378e+02 7.465553741181508718e-01 1.877727931343097997e-02
1.101134693877550974e-01 1.046074758816730963e+02 7.628731882755921401e-01 1.917135856138627026e-02
1.110122448979591891e-01 1.054676045815766798e+02 7.795354471831428267e-01 1.957225468618466191e-02
1.119110204081632531e-01 1.063278695981328781e+02 7.965481947316358502e-01 1.998005717314836963e-02
1.128097959183673449e-01 1.071882726759453703e+02 8.139175571299578360e-01 2.039485550759963933e-02
1.137085714285714227e-01 1.080488155809552211e+02 8.316497430645756195e-01 2.081673917486068573e-02
1.146073469387755006e-01 1.089095001005871239e+02 8.497510438623685491e-01 2.124579766025375474e-02
1.155061224489795924e-01 1.097703280438932438e+02 8.682278336568043375e-01 2.168212044910107147e-02
1.164048979591836702e-01 1.106313012416928814e+02 8.870865695575123056e-01 2.212579702672487145e-02
1.173036734693877481e-01 1.114924215467098350e+02 9.063337918233045354e-01 2.257691687844737977e-02
1.182024489795918398e-01 1.123536908337063949e+02 9.259761240386903403e-01 2.303556948959083889e-02
1.191012244897959177e-01 1.132151109996153053e+02 9.460202732939354542e-01 2.350184434547746698e-02
1.199999999999999956e-01 1.140766839636684580e+02 9.664730303687195656e-01 2.397583093142949956e-02
1.229424983528508847e-01 1.168984859233786864e+02 1.036378200582263265e+00 2.557021385136185043e-02
1.258849967057017738e-01 1.197220154988438736e+02 1.110865835779532240e+00 2.719140374222141915e-02
1.288274950585526768e-01 1.225473403687649210e+02 1.190016749910982830e+00 2.883772038369480928e-02
1.317699934114035798e-01 1.253745269174216048e+02 1.273907486291705693e+00 3.050751651359291661e-02
1.347124917642544550e-01 1.282036402269179405e+02 1.362610398435230907e+00 3.219917700509104114e-02
1.376549901171053580e-01 1.310347440718337282e+02 1.456193727426416951e+00 3.391111799356804485e-02
1.405974884699562610e-01 1.338679009159509690e+02 1.554721675778834911e+00 3.564178596294804297e-02
1.435399868228071640e-01 1.367031719107636150e+02 1.658254477744665278e+00 3.738965680071588277e-02
1.464824851756580393e-01 1.395406168955141766e+02 1.766848466065832568e+00 3.915323483010978850e-02
1.494249835285089423e-01 1.423802943985336924e+02 1.880556135174202836e+00 4.093105182736678227e-02
1.523674818813598453e-01 1.452222616396867068e+02 1.999426200866206926e+00 4.272166603131622581e-02
1.553099802342107205e-01 1.480665745337448982e+02 2.123503656493467506e+00 4.452366115207094521e-02
1.582524785870616235e-01 1.509132876945400596e+02 2.252829825725906510e+00 4.633564538505578062e-02
1.611949769399125265e-01 1.537624544397555724e+02 2.387442411957569455e+00 4.815625043613420281e-02
1.641374752927634018e-01 1.566141267962421466e+02 2.527375544438133836e+00 4.998413056314433833e-02
1.670799736456143048e-01 1.594683555057501962e+02 2.672659821224764531e+00 5.181796163873417238e-02
1.700224719984652078e-01 1.623251900309875566e+02 2.823322349059788738e+00 5.365644023898954312e-02
1.729649703513160830e-01 1.651846785619237039e+02 2.979386780289701608e+00 5.549828276197905225e-02
1.759074687041669860e-01 1.680468680222675459e+02 3.140873346950198819e+00 5.734222457999334222e-02
1.788499670570178890e-01 1.709118040760607755e+02 3.307798892150472181e+00 5.918701922893325473e-02
1.817924654098687642e-01 1.737795311343315348e+02 3.480176898897931803e+00 6.103143763800202709e-02
1.847349637627196672e-01 1.766500923617650187e+02 3.658017516511796963e+00 6.287426740257764934e-02
1.876774621155705702e-01 1.795235296833514269e+02 3.841327584780778626e+00 6.471431210288539071e-02
1.906199604684214455e-01 1.823998837909794872e+02 4.030110656026430149e+00 6.655039067085363746e-02
1.935624588212723485e-01 1.852791941499490918e+02 4.224367015239575807e+00 6.838133680732073894e-02
1.965049571741232515e-01 1.881614990053791132e+02 4.424093698462732149e+00 7.020599845156234864e-02
1.994474555269741267e-01 1.910468353884959924e+02 4.629284509596632624e+00 7.202323730493299936e-02
2.023899538798250297e-01 1.939352391227890848e+02 4.839930035813797993e+00 7.383192841025282283e-02
2.053324522326759327e-01 1.968267448300219939e+02 5.056017661766697202e+00 7.563095978842952760e-02
2.082749505855268080e-01 1.997213859360971355e+02 5.277531582782489572e+00 7.741923213367818413e-02
2.112174489383777387e-01 2.026191946767674210e+02 5.504452817240506945e+00 7.919565856859225872e-02
2.141599472912286140e-01 2.055202021031997219e+02 5.736759218332672994e+00 8.095916446022244362e-02
2.171024456440794892e-01 2.084244380873896034e+02 5.974425485411131831e+00 8.270868729824039367e-02
2.200449439969304199e-01 2.113319313274359672e+02 6.217423175131050250e+00 8.444317663619477221e-02
2.229874423497812952e-01 2.142427093526812314e+02 6.465720712600483644e+00 8.616159409681388437e-02
2.259299407026321982e-01 2.171567985287297802e+02 6.719283402752983747e+00 8.786291344226500322e-02
2.288724390554831012e-01 2.200742240623546593e+02 6.978073442162240347e+00 8.954612071024642406e-02
2.318149374083339764e-01 2.229950100063087461e+02 7.242049931522021922e+00 9.121021441676858965e-02
2.347574357611848794e-01 2.259191792640558845e+02 7.511168889018329686e+00 9.285420582646460030e-02
2.376999341140357824e-01 2.288467535944376436e+02 7.785383264824573324e+00 9.447711929126449693e-02
2.406424324668866577e-01 2.317777536162976730e+02 8.064642956954511277e+00 9.607799265827224322e-02
2.435849308197375607e-01 2.347121988130840862e+02 8.348894828711623362e+00 9.765587774768642870e-02
2.465274291725884637e-01 2.376501075374496565e+02 8.638082727977611341e+00 9.920984090162365820e-02
2.494699275254393389e-01 2.405914970158752340e+02 8.932147508586918860e+00 1.007389636047156117e-01
2.524124258782902697e-01 2.435363833533415630e+02 9.231027054038287716e+00 1.022423431773712282e-01
2.553549242311411449e-01 2.464847815380731220e+02 9.534656303798637822e+00 1.037190935426166444e-01
2.582974225839920202e-01 2.494367054463837121e+02 9.842967282459040845e+00 1.051683460674448789e-01
2.612399209368428954e-01 2.523921678476514217e+02 1.015588913200674703e+01 1.065892504796289164e-01
2.641824192896938261e-01 2.553511804094489719e+02 1.047334814748190190e+01 1.079809758609670683e-01
3.404235944062307118e-01 3.338911794785671532e+02 2.567107312568482058e+01 2.745855901424604784e-01
4.166647695227675419e-01 4.172757042651946335e+02 5.582327750776416053e+01 4.411902044239537357e-01
4.929059446393043720e-01 5.075798187979254976e+02 1.036511112804367230e+02 6.077948187054470486e-01
5.691471197558413131e-01 6.067134074793327727e+02 1.728152252178077219e+02 7.743994329869405835e-01
6.453882948723781432e-01 7.164737390297477759e+02 2.549653481823920629e+02 7.270495010246000867e-01
7.216294699889149733e-01 8.349158631136020858e+02 3.042910830431757176e+02 1.264262218903288992e-01
7.978706451054518034e-01 9.560321434019831486e+02 3.190625664778205532e+02 1.175815567782872023e-01
8.741118202219886335e-01 1.078519543168816654e+03 3.329189580579818539e+02 1.087368916662455193e-01
9.503529953385254636e-01 1.202176174525497800e+03 3.458147358167561265e+02 9.989222655420382235e-02
1.026594170455062294e+00 1.326829315923217337e+03 3.577125750880992996e+02 9.104756144216213931e-02
1.102835345571599346e+00 1.452329440342246016e+03 3.685817812700036598e+02 8.220289633012042851e-02
1.179076520688136176e+00 1.578545807272361117e+03 3.783971149821070981e+02 7.335823121807874547e-02
1.255317695804673006e+00 1.705363131964929607e+03 3.871378903646306640e+02 6.451356610603704855e-02
1.331558870921209836e+00 1.832679017676011199e+03 3.947872689475217953e+02 5.566890099399536551e-02
1.407800046037746666e+00 1.960401941367849304e+03 4.013316969804997143e+02 4.682423588195368247e-02
1.484041221154283496e+00 2.088449649308855896e+03 4.067604502347055018e+02 3.797957076991198555e-02
1.560282396270820326e+00 2.216983335340288249e+03 4.215651333792829973e+02 1.918944207770095778e-01
1.636523571387357157e+00 2.346696427448388476e+03 4.571320105357980310e+02 3.551675219810600526e-01
1.712764746503893987e+00 2.478532133555675045e+03 5.148687600216036344e+02 5.184406231851105273e-01
1.789005921620430817e+00 2.613407194734051245e+03 5.960297231875211992e+02 6.817137243891610021e-01
1.865247096736967869e+00 2.752196609352896758e+03 6.963307336477369063e+02 7.616548634976234577e-01
1.941488271853504699e+00 2.895325884628186941e+03 8.020278401834667648e+02 7.165189691326739885e-01
2.017729446970041529e+00 3.042536500989947854e+03 9.041050730718382056e+02 6.713830747677244082e-01
2.093970622086578359e+00 3.193526373404005426e+03 1.001997792939723467e+03 6.262471804027748279e-01
