# density  energy_density  pressure   sound_speed_squared  [All in nuclear units]
2.720000000000000022e-14 2.529924618736292620e-11 1.061056609100270887e-19 3.766610435412189122e-08
1.269999999999999890e-13 1.181251617980081254e-10 4.870113551826584858e-18 6.497781477172163475e-08
6.929999999999999754e-13 6.445728594625782745e-10 1.018299070687946017e-16 3.033770597342807186e-07
6.295000000000000137e-12 5.855111460395753757e-09 5.487150723824490656e-15 1.763710043904196507e-06
1.581000000000000150e-11 1.470523320212576141e-08 2.904239460150760759e-14 3.559434472327477622e-06
3.971999999999999958e-11 3.694456170323160790e-08 1.439340266754906811e-13 6.772854871245677111e-06
9.975999999999999982e-11 9.278976412613005154e-08 6.812143616221268841e-13 1.246890511177539320e-05
2.505999999999999928e-10 2.330928829758143313e-07 3.107749196951638608e-12 2.212095130576091967e-05
6.294000000000000186e-10 5.854398883216247602e-07 1.363250409771533549e-11 3.761981047239428883e-05
1.581000000000000021e-09 1.470619631082054101e-06 5.726014178088476303e-11 6.095350986710739404e-05
3.971999999999999932e-09 3.694861084648016046e-06 2.210019573374265380e-10 8.628023653304385055e-05
5.000000000000000105e-09 4.651201787816927976e-06 3.071485916280120014e-10 9.387863480799757518e-05
9.975999999999999465e-09 9.280587964640925786e-06 8.385361004129998845e-10 1.356922228656245837e-04
1.989999999999999952e-08 1.851419242998081003e-05 2.287763168863418088e-09 1.782101978513718314e-04
3.972999999999999908e-08 3.696699295748789187e-05 6.061583099087538954e-09 2.308134738384234820e-04
7.925999999999999637e-08 7.375765469301719828e-05 1.575347858094044765e-08 2.960532096713864875e-04
1.580999999999999930e-07 1.471491184379128891e-04 3.910429618672550719e-08 3.402859755131850544e-04
1.991000000000000027e-07 1.853209783927820692e-04 5.252045687899177454e-08 3.626488188833278743e-04
3.155999999999999938e-07 2.938002528823880299e-04 9.730770378831954314e-08 4.630767356912104081e-04
5.000999999999999849e-07 4.656344063839075714e-04 1.837494945860225819e-07 5.430301232045120323e-04
6.295999999999999732e-07 5.862651417037388971e-04 2.503103884558263872e-07 5.605192962670089638e-04
9.666999999999999941e-07 9.003386739730535665e-04 4.324450868778576936e-07 5.993081670211623108e-04
1.531999999999999901e-06 1.427170885631398036e-03 7.780217275717420968e-07 7.125938556504039095e-04
2.506999999999999883e-06 2.336134972129507662e-03 1.471005394641589826e-06 8.121876172121876309e-04
3.974000000000000407e-06 3.704315759716615697e-03 2.695705763844323844e-06 9.780674166779417152e-04
4.830000000000000343e-06 4.502887798316278223e-03 3.503988717694660908e-06 1.046253037768318664e-03
6.080999999999999885e-06 5.670217999231269741e-03 4.731126407333307547e-06 1.056224360839501646e-03
7.930000000000000308e-06 7.396012414119570652e-03 6.599662989063778187e-06 1.109203753630785610e-03
9.982000000000000313e-06 9.311815711689977113e-03 8.879881089227186733e-06 1.271216815433141075e-03
1.256999999999999993e-05 1.172874412604260098e-02 1.207676739913533738e-05 1.374195438212825332e-03
1.521999999999999997e-05 1.420427250933824909e-02 1.547541302213394990e-05 1.371610497379100249e-03
1.991000000000000080e-05 1.858690797761085312e-02 2.160710455847765458e-05 1.426578142835871997e-03
2.506999999999999883e-05 2.341050104039446925e-02 2.908031724375689851e-05 1.672007475975408053e-03
2.790999999999999875e-05 2.606604784714952258e-02 3.357009132255487721e-05 1.709425557744154774e-03
3.806999999999999973e-05 3.556967988784798945e-02 4.986781576435106434e-05 1.720407281314112165e-03
5.063000000000000145e-05 4.732434580343149871e-02 7.073400252905581275e-05 1.829889149838781265e-03
6.592000000000000583e-05 6.164112392498975052e-02 9.765037643900635188e-05 1.930242980462695823e-03
8.433000000000000066e-05 7.888776783401378612e-02 1.317235490470395893e-04 2.021055815200022837e-03
1.062000000000000064e-04 9.938561165478684845e-02 1.740088341640037047e-04 2.104789529260958983e-03
1.321000000000000126e-04 1.236720406455826121e-01 2.260189757651373944e-04 2.178291718403657477e-03
1.623999999999999901e-04 1.520974545104751274e-01 2.888169908545388338e-04 2.240170365918073281e-03
1.689999999999999879e-04 1.582907717069566844e-01 3.027354772999506964e-04 2.254509350360745651e-03
1.758999999999999930e-04 1.647661861691531171e-01 3.173785841705756782e-04 2.268169273277113179e-03
1.830000000000000029e-04 1.714298948183871907e-01 3.325196584577469103e-04 2.276170334580628063e-03
1.901999999999999882e-04 1.781880600978280049e-01 3.479577791899843742e-04 2.292561569242367037e-03
1.977000000000000079e-04 1.852284385240466902e-01 3.641242634600037713e-04 2.299943765467868384e-03
2.054000000000000053e-04 1.924572004474696396e-01 3.808304060475003897e-04 2.322187632288155723e-03
2.079000000000000119e-04 1.948043378760714872e-01 3.864137987380476553e-04 2.435429768083530178e-03
2.081999999999999921e-04 1.950859988578999005e-01 3.870314100985603909e-04 1.950065624557156818e-03
2.090999999999999868e-04 1.959309855029948977e-01 3.881261957135444685e-04 6.411875526909013856e-04
2.159999999999999919e-04 2.024093317906446865e-01 3.940874488768042125e-04 1.199166870571831411e-03
2.231000000000000019e-04 2.090756740932291913e-01 4.013938420547467825e-04 9.928616047829054436e-04
2.311000000000000066e-04 2.165873044433437034e-01 4.085241694843774404e-04 9.056166966301716637e-04
2.401000000000000085e-04 2.250381721984245909e-01 4.159700687886608468e-04 8.565463878902855599e-04
2.500000000000000052e-04 2.343344406330727658e-01 4.237602369176299592e-04 8.194318812157330018e-04
2.642999999999999733e-04 2.477629128650125634e-01 4.345596643180389446e-04 7.890063723638815647e-04
3.052999999999999941e-04 2.862671839140227270e-01 4.644058706720978241e-04 7.612775562167708662e-04
3.533000000000000224e-04 3.313503829113090826e-01 4.987577676308450197e-04 7.626578558207241024e-04
4.075999999999999871e-04 3.823564017794535141e-01 5.381334366106255759e-04 7.813048116943254948e-04
4.679999999999999915e-04 4.390986251953180042e-01 5.832692638200615834e-04 8.096035963157804938e-04
5.341000000000000261e-04 5.012024644415256081e-01 6.346556894078133086e-04 8.452514814113673558e-04
6.059000000000000366e-04 5.686690698184251325e-01 6.930641302632923034e-04 8.862253587289389486e-04
7.661000000000000275e-04 7.192254882508629654e-01 8.328184776562496576e-04 9.702780530519144065e-04
1.262000000000000101e-03 1.185459127778160093e+00 1.338484980802662205e-03 1.198863597978450275e-03
1.894999999999999983e-03 1.780909071169781921e+00 2.123481960401060308e-03 1.437771491635827115e-03
2.673000000000000029e-03 2.513147344746868850e+00 3.261860252001994032e-03 1.671524566936786766e-03
3.605999999999999830e-03 3.391736073717691369e+00 4.828136641022434151e-03 1.893900408978071038e-03
4.709999999999999777e-03 4.431905410739045870e+00 6.903512974832482635e-03 2.096551352830673849e-03
7.496000000000000059e-03 7.058993649504918366e+00 1.289742191321638018e-02 2.466596387205546859e-03
1.119999999999999989e-02 1.055540362104863661e+01 2.212077014004794340e-02 2.809304433764861584e-03
1.600000000000000033e-02 1.509117352747679952e+01 3.559566804390756900e-02 3.132325055719984222e-03
2.206999999999999934e-02 2.083310616724802244e+01 5.457322122755020599e-02 3.477840948757840792e-03
2.947999999999999926e-02 2.785007348564149154e+01 8.049103664263126956e-02 3.909302116317729670e-03
4.268000000000000266e-02 4.036707211535221518e+01 1.353887601042819133e-01 4.862066536253286525e-03
6.219999999999999835e-02 5.891246509830522626e+01 2.419691225623893105e-01 6.630786177272363080e-03
7.316999999999999893e-02 6.935151695866235855e+01 3.161896974764099033e-01 7.588671314871411888e-03
7.595999999999999974e-02 7.200836722020332559e+01 3.371250777904805096e-01 8.170805199905812125e-03
7.685877551020407761e-02 7.286441678252705856e+01 3.442031188164763611e-01 8.365708389791925645e-03
7.775755102040816935e-02 7.372055008480791116e+01 3.514474476785440782e-01 8.557650291645171534e-03
7.865632653061224722e-02 7.457676806765746846e+01 3.588557066494771353e-01 8.746951481926607333e-03
7.955510204081632508e-02 7.543307162480547845e+01 3.664258119252216117e-01 8.933932537097281912e-03
8.045387755102040295e-02 7.628946160778492924e+01 3.741559537274309899e-01 9.118914033618256282e-03
8.135265306122449469e-02 7.714593883040802780e+01 3.820445964123004301e-01 9.302216547950587985e-03
8.225142857142857256e-02 7.800250407304632461e+01 3.900904785851517786e-01 9.484160656555325891e-03
8.315020408163265042e-02 7.885915808672434935e+01 3.982926132203091774e-01 9.665066935893527542e-03
8.404897959183672829e-02 7.971590159703829670e+01 4.066502877858619303e-01 9.845255962426253948e-03
8.494775510204082003e-02 8.057273530790794780e+01 4.151630643729715131e-01 1.002504831261455572e-02
8.584653061224489790e-02 8.142965990517107855e+01 4.238307798294291273e-01 1.020476456291948171e-02
8.674530612244897576e-02 8.228667606002906609e+01 4.326535458972225467e-01 1.038472528980209988e-02
8.764408163265305363e-02 8.314378443235118255e+01 4.416317493539129169e-01 1.056525106972345911e-02
8.854285714285714537e-02 8.400098567384451087e+01 4.507660521576683510e-01 1.074666247914461865e-02
8.944163265306122323e-02 8.485828043109657415e+01 4.600573915958389715e-01 1.092928009452662566e-02
9.034040816326530110e-02 8.571566934849744257e+01 4.695069804369979560e-01 1.111342449233054287e-02
9.123918367346939284e-02 8.657315307104728674e+01 4.791163070864045692e-01 1.129941624901742610e-02
9.213795918367347071e-02 8.743073224705392477e+01 4.888871357448811295e-01 1.148757594104832941e-02
9.303673469387754857e-02 8.828840753072776693e+01 4.988215065711271712e-01 1.167822414488430514e-02
9.393551020408162644e-02 8.914617958467728442e+01 5.089217358475188746e-01 1.187168143698641085e-02
9.483428571428570431e-02 9.000404908231105594e+01 5.191904161494741432e-01 1.206826839381569885e-02
9.573306122448979605e-02 9.086201671014997316e+01 5.296304165184863022e-01 1.226830559183323364e-02
9.663183673469387391e-02 9.172008317005449385e+01 5.402448826389530945e-01 1.247211360750006409e-02
9.753061224489795178e-02 9.257824918137050929e+01 5.510372370189547953e-01 1.268001301727724427e-02
9.842938775510204352e-02 9.343651548299834531e+01 5.620111791751490893e-01 1.289232439762583345e-02
9.932816326530612139e-02 9.429488283538671567e+01 5.731706858219778322e-01 1.310936832500688570e-02
1.002269387755101993e-01 9.515335202245766766e+01 5.845200110653971937e-01 1.333146537588145338e-02
1.011257142857142910e-01 9.601192385346324443e+01 5.960636866013580004e-01 1.355893612671060094e-02
1.020244897959183689e-01 9.687059916477809907e+01 6.078065219192843038e-01 1.379210115395537208e-02
1.029232653061224467e-01 9.772937882163103041e+01 6.197536045108136271e-01 1.403128103407682778e-02
1.038220408163265246e-01 9.858826371977767167e+01 6.319103000840744500e-01 1.427679634353602386e-02
1.047208163265306025e-01 9.944725478711723099e+01 6.442822527837941404e-01 1.452896765879401267e-02
1.056195918367346942e-01 1.003063529852552449e+02 6.568753854175444218e-01 1.478811555631186388e-02
1.065183673469387721e-01 1.011655593110160822e+02 6.696958996884407878e-01 1.505456061255061248e-02
1.074171428571428499e-01 1.020248747979049142e+02 6.827502764346314867e-01 1.532862340397132123e-02
1.083159183673469417e-01 1.028843005175243803e+02 6.960452758759146930e-01 1.561062450703505286e-02
1.092146938775510195e-01 1.037438375809449411e+02 7.095879378678411342e-01 1.590088449820285105e-02
1.101134693877550974e-01 1.046034871400328967e+02 7.233855821636682171e-01 1.619972395393578374e-02
1.110122448979591891e-01 1.054632503887375208e+02 7.374458086845385729e-01 1.650746345069489807e-02
1.119110204081632531e-01 1.063231285643380346e+02 7.517764977982689389e-01 1.682442356494124810e-02
1.128097959183673449e-01 1.071831229486529793e+02 7.663858106071478327e-01 1.715092487313590180e-02
1.137085714285714227e-01 1.080432348692140039e+02 7.812821892451364825e-01 1.748728795173989242e-02
1.146073469387755006e-01 1.089034657004036006e+02 7.964743571848970083e-01 1.783383337721429485e-02
1.155061224489795924e-01 1.097638168645614911e+02 8.119713195550577467e-01 1.819088172602015968e-02
1.164048979591836702e-01 1.106242898330569062e+02 8.277823634681485965e-01 1.855875357461853753e-02
1.173036734693877481e-01 1.114848861273323877e+02 8.439170583596433683e-01 1.893776949947049287e-02
1.182024489795918398e-01 1.123456073199163967e+02 8.603852563385482322e-01 1.932825007703707285e-02
1.191012244897959177e-01 1.132064550354094479e+02 8.771970925499876781e-01 1.973051588377933152e-02
1.199999999999999956e-01 1.140674309514421196e+02 8.943629855502480686e-01 2.014488749615832991e-02
1.213956658681671491e-01 1.154046582835489119e+02 9.217447747044900108e-01 2.080812201424862840e-02
1.227913317363342888e-01 1.167422055698786352e+02 9.500251409387773238e-01 2.147870805018603849e-02
1.241869976045014423e-01 1.180800794456557270e+02 9.792143751078932201e-01 2.215647214962009406e-02
1.255826634726685820e-01 1.194182865114348715e+02 1.009322556874370891e+00 2.284124260508782478e-02
1.269783293408357494e-01 1.207568333319231186e+02 1.040359557006695912e+00 2.353284949790724126e-02
1.283739952090028891e-01 1.220957264348779461e+02 1.072335039718979921e+00 2.423112473762885355e-02
1.297696610771700565e-01 1.234349723100801270e+02 1.105258465049379968e+00 2.493590209909674407e-02
1.311653269453371962e-01 1.247745774083756771e+02 1.139139091274572246e+00 2.564701725716861738e-02
1.325609928135043358e-01 1.261145481407850752e+02 1.173985977357688393e+00 2.636430781913851051e-02
1.339566586816715033e-01 1.274548908776751830e+02 1.209807985427149291e+00 2.708761335490753042e-02
1.353523245498386429e-01 1.287956119479927963e+02 1.246613783283902377e+00 2.781677542493846828e-02
1.367479904180057826e-01 1.301367176385543019e+02 1.284411846934619517e+00 2.855163760603510875e-02
1.381436562861729500e-01 1.314782141933921196e+02 1.323210463148439597e+00 2.929204551497969697e-02
1.395393221543400897e-01 1.328201078131513384e+02 1.363017732034896623e+00 3.003784683006007969e-02
1.409349880225072571e-01 1.341624046545386193e+02 1.403841569640716491e+00 3.078889131052050046e-02
1.423306538906743968e-01 1.355051108298171130e+02 1.445689710563170083e+00 3.154503081396119180e-02
1.437263197588415364e-01 1.368482324063473641e+02 1.488569710577745564e+00 3.230611931171738921e-02
1.451219856270087039e-01 1.381917754061719847e+02 1.532488949277886370e+00 3.307201290224022483e-02
1.465176514951758435e-01 1.395357458056410849e+02 1.577454632724595962e+00 3.384256982250657964e-02
1.479133173633429832e-01 1.408801495350782602e+02 1.623473796103731992e+00 3.461765045747796504e-02
1.493089832315101506e-01 1.422249924784826476e+02 1.670553306388808945e+00 3.539711734763142936e-02
1.507046490996772903e-01 1.435702804732688094e+02 1.718699865007172312e+00 3.618083519458193537e-02
1.521003149678444299e-01 1.449160193100399852e+02 1.767920010507421313e+00 3.696867086481545744e-02
1.534959808360115974e-01 1.462622147323943125e+02 1.818220121225947228e+00 3.776049339155052031e-02
1.548916467041787370e-01 1.476088724367619136e+02 1.869606417950492760e+00 3.855617397474538077e-02
1.562873125723459045e-01 1.489559980722728767e+02 1.922084966578649023e+00 3.935558597926666624e-02
1.576829784405130441e-01 1.503035972406528060e+02 1.975661680769179140e+00 4.015860493123463854e-02
1.590786443086801838e-01 1.516516754961455717e+02 2.030342324584124558e+00 4.096510851255952962e-02
1.604743101768473512e-01 1.530002383454620940e+02 2.086132515119594188e+00 4.177497655368224427e-02
1.618699760450144909e-01 1.543492912477541097e+02 2.143037725123184689e+00 4.258809102453242623e-02
1.632656419131816583e-01 1.556988396146103355e+02 2.201063285595973529e+00 4.340433602371621818e-02
1.646613077813487980e-01 1.570488888100756526e+02 2.260214388377003392e+00 4.422359776594454034e-02
1.660569736495159376e-01 1.583994441506921191e+02 2.320496088708225546e+00 4.504576456771363507e-02
1.674526395176830773e-01 1.597505109055580022e+02 2.381913307777816069e+00 4.587072683124754358e-02
1.688483053858502447e-01 1.611020942964082963e+02 2.444470835239822559e+00 4.669837702671254809e-02
1.702439712540173844e-01 1.624541994977118975e+02 2.508173331708063003e+00 4.752860967271271830e-02
1.716396371221845518e-01 1.638068316367858017e+02 2.573025331222232648e+00 4.836132131507549226e-02
1.730353029903516915e-01 1.651599957939269814e+02 2.639031243684117012e+00 4.919641050393527837e-02
1.744309688585188312e-01 1.665136970025576204e+02 2.706195357261872214e+00 5.003377776912305841e-02
1.758266347266859986e-01 1.678679402493862654e+02 2.774521840760262315e+00 5.087332559386964492e-02
1.772223005948531382e-01 1.692227304745813967e+02 2.844014745954781542e+00 5.171495838682872714e-02
1.786179664630203057e-01 1.705780725719594386e+02 2.914678009887577748e+00 5.255858245242754634e-02
1.800136323311874453e-01 1.719339713891823180e+02 2.986515457123048112e+00 5.340410595954982881e-02
1.814092981993545850e-01 1.732904317279682118e+02 3.059530801961034552e+00 5.425143890855824852e-02
1.828049640675217247e-01 1.746474583443121560e+02 3.133727650605467652e+00 5.510049309666089495e-02
1.842006299356888921e-01 1.760050559487151816e+02 3.209109503286357246e+00 5.595118208162690177e-02
1.855962958038560595e-01 1.773632292064244780e+02 3.285679756332970936e+00 5.680342114385625307e-02
1.869919616720231992e-01 1.787219827376793830e+02 3.363441704196075133e+00 5.765712724680798623e-02
1.883876275401903388e-01 1.800813211179672066e+02 3.442398541417066582e+00 5.851221899579062830e-02
2.661756351414109600e-01 2.573550948442733102e+02 1.213474168597413616e+01 1.644390258264651627e-01
3.439636427426315812e-01 3.383410615282283516e+02 2.986687055084192366e+01 2.703658326571397041e-01
4.217516503438521469e-01 4.250757843704046195e+02 7.186201285938216188e+01 6.707373803891046871e-01
4.995396579450727681e-01 5.224480569196432498e+02 1.419000486777140679e+02 7.597676776699917589e-01
5.773276655462933338e-01 6.308073235113359942e+02 1.936208379948608638e+02 2.236385722874568716e-01
6.551156731475139550e-01 7.432532357260967046e+02 2.138632994261757574e+02 1.376427256920629838e-01
7.329036807487345762e-01 8.581334654539633675e+02 2.369439725260550915e+02 2.625754766850735278e-01
8.106916883499551973e-01 9.762065657204356057e+02 2.754735356747286232e+02 3.875082276780840718e-01
8.884796959511758185e-01 1.098709021796770458e+03 3.308116133258370724e+02 5.124409786710946157e-01
9.662677035523964397e-01 1.226795409300935034e+03 4.047371054748648476e+02 6.373737296641051042e-01
1.044055711153617061e+00 1.361586692521205350e+03 4.988905085337215723e+02 7.545410964332720516e-01
1.121843718754837571e+00 1.504074734528914178e+03 6.053560091737008406e+02 7.406984458588907749e-01
1.199631726356058303e+00 1.654073632151806578e+03 7.153635630131730068e+02 7.268557952845093872e-01
1.277419733957278813e+00 1.811312676200948090e+03 8.285101505890827411e+02 7.130131447101281106e-01
1.355207741558499546e+00 1.975530136991507334e+03 9.444103543723298344e+02 6.991704941357467229e-01
1.432995749159720056e+00 2.146472701342278924e+03 1.062695468154322498e+03 6.853278435613654462e-01
1.510783756760940566e+00 2.323894986235154192e+03 1.183012698331091542e+03 6.714851929869840585e-01
1.588571764362161298e+00 2.507559113632865774e+03 1.305024440143717356e+03 6.576425424126027819e-01
1.666359771963381808e+00 2.697234334795348786e+03 1.428407616025980587e+03 6.437998918382213942e-01
1.744147779564602541e+00 2.892696695180346978e+03 1.552853066145826460e+03 6.299572412638401175e-01
1.821935787165823051e+00 3.093728733012331759e+03 1.678064983373624955e+03 6.161145906894587299e-01
1.899723794767043783e+00 3.300119206082737037e+03 1.803760386506483883e+03 6.022719401150773422e-01
1.977511802368264293e+00 3.511662842455638838e+03 1.929668626783343370e+03 5.884292895406960655e-01
2.055299809969485025e+00 3.728160111599299398e+03 2.055530923648735097e+03 5.745866389663147888e-01
