# density  energy_density  pressure   sound_speed_squared  [All in nuclear units]
2.720000000000000022e-14 2.529924618736292620e-11 1.061056609100270887e-19 3.766610435412189122e-08
1.269999999999999890e-13 1.181251617980081254e-10 4.870113551826584858e-18 6.497781477172163475e-08
6.929999999999999754e-13 6.445728594625782745e-10 1.018299070687946017e-16 3.033770597342807186e-07
6.295000000000000137e-12 5.855111460395753757e-09 5.487150723824490656e-15 1.763710043904196507e-06
1.581000000000000150e-11 1.470523320212576141e-08 2.904239460150760759e-14 3.559434472327477622e-06
3.971999999999999958e-11 3.694456170323160790e-08 1.439340266754906811e-13 6.772854871245677111e-06
9.975999999999999982e-11 9.278976412613005154e-08 6.812143616221268841e-13 1.246890511177539320e-05
2.505999999999999928e-10 2.330928829758143313e-07 3.107749196951638608e-12 2.212095130576091967e-05
6.294000000000000186e-10 5.854398883216247602e-07 1.363250409771533549e-11 3.761981047239428883e-05
1.581000000000000021e-09 1.470619631082054101e-06 5.726014178088476303e-11 6.095350986710739404e-05
3.971999999999999932e-09 3.694861084648016046e-06 2.210019573374265380e-10 8.628023653304385055e-05
5.000000000000000105e-09 4.651201787816927976e-06 3.071485916280120014e-10 9.387863480799757518e-05
9.975999999999999465e-09 9.280587964640925786e-06 8.385361004129998845e-10 1.356922228656245837e-04
1.989999999999999952e-08 1.851419242998081003e-05 2.287763168863418088e-09 1.782101978513718314e-04
3.972999999999999908e-08 3.696699295748789187e-05 6.061583099087538954e-09 2.308134738384234820e-04
7.925999999999999637e-08 7.375765469301719828e-05 1.575347858094044765e-08 2.960532096713864875e-04
1.580999999999999930e-07 1.471491184379128891e-04 3.910429618672550719e-08 3.402859755131850544e-04
1.991000000000000027e-07 1.853209783927820692e-04 5.252045687899177454e-08 3.626488188833278743e-04
3.155999999999999938e-07 2.938002528823880299e-04 9.730770378831954314e-08 4.630767356912104081e-04
5.000999999999999849e-07 4.656344063839075714e-04 1.837494945860225819e-07 5.430301232045120323e-04
6.295999999999999732e-07 5.862651417037388971e-04 2.503103884558263872e-07 5.605192962670089638e-04
9.666999999999999941e-07 9.003386739730535665e-04 4.324450868778576936e-07 5.993081670211623108e-04
1.531999999999999901e-06 1.427170885631398036e-03 7.780217275717420968e-07 7.125938556504039095e-04
2.506999999999999883e-06 2.336134972129507662e-03 1.471005394641589826e-06 8.121876172121876309e-04
3.974000000000000407e-06 3.704315759716615697e-03 2.695705763844323844e-06 9.780674166779417152e-04
4.830000000000000343e-06 4.502887798316278223e-03 3.503988717694660908e-06 1.046253037768318664e-03
6.080999999999999885e-06 5.670217999231269741e-03 4.731126407333307547e-06 1.056224360839501646e-03
7.930000000000000308e-06 7.396012414119570652e-03 6.599662989063778187e-06 1.109203753630785610e-03
9.982000000000000313e-06 9.311815711689977113e-03 8.879881089227186733e-06 1.271216815433141075e-03
1.256999999999999993e-05 1.172874412604260098e-02 1.207676739913533738e-05 1.374195438212825332e-03
1.521999999999999997e-05 1.420427250933824909e-02 1.547541302213394990e-05 1.371610497379100249e-03
1.991000000000000080e-05 1.858690797761085312e-02 2.160710455847765458e-05 1.426578142835871997e-03
2.506999999999999883e-05 2.341050104039446925e-02 2.908031724375689851e-05 1.672007475975408053e-03
2.790999999999999875e-05 2.606604784714952258e-02 3.357009132255487721e-05 1.709425557744154774e-03
3.806999999999999973e-05 3.556967988784798945e-02 4.986781576435106434e-05 1.720407281314112165e-03
5.063000000000000145e-05 4.732434580343149871e-02 7.073400252905581275e-05 1.829889149838781265e-03
6.592000000000000583e-05 6.164112392498975052e-02 9.765037643900635188e-05 1.930242980462695823e-03
8.433000000000000066e-05 7.888776783401378612e-02 1.317235490470395893e-04 2.021055815200022837e-03
1.062000000000000064e-04 9.938561165478684845e-02 1.740088341640037047e-04 2.104789529260958983e-03
1.321000000000000126e-04 1.236720406455826121e-01 2.260189757651373944e-04 2.178291718403657477e-03
1.623999999999999901e-04 1.520974545104751274e-01 2.888169908545388338e-04 2.240170365918073281e-03
1.689999999999999879e-04 1.582907717069566844e-01 3.027354772999506964e-04 2.254509350360745651e-03
1.758999999999999930e-04 1.647661861691531171e-01 3.173785841705756782e-04 2.268169273277113179e-03
1.830000000000000029e-04 1.714298948183871907e-01 3.325196584577469103e-04 2.276170334580628063e-03
1.901999999999999882e-04 1.781880600978280049e-01 3.479577791899843742e-04 2.292561569242367037e-03
1.977000000000000079e-04 1.852284385240466902e-01 3.641242634600037713e-04 2.299943765467868384e-03
2.054000000000000053e-04 1.924572004474696396e-01 3.808304060475003897e-04 2.322187632288155723e-03
2.079000000000000119e-04 1.948043378760714872e-01 3.864137987380476553e-04 2.435429768083530178e-03
2.081999999999999921e-04 1.950859988578999005e-01 3.870314100985603909e-04 1.950065624557156818e-03
2.090999999999999868e-04 1.959309855029948977e-01 3.881261957135444685e-04 6.411875526909013856e-04
2.159999999999999919e-04 2.024093317906446865e-01 3.940874488768042125e-04 1.199166870571831411e-03
2.231000000000000019e-04 2.090756740932291913e-01 4.013938420547467825e-04 9.928616047829054436e-04
2.311000000000000066e-04 2.165873044433437034e-01 4.085241694843774404e-04 9.056166966301716637e-04
2.401000000000000085e-04 2.250381721984245909e-01 4.159700687886608468e-04 8.565463878902855599e-04
2.500000000000000052e-04 2.343344406330727658e-01 4.237602369176299592e-04 8.194318812157330018e-04
2.642999999999999733e-04 2.477629128650125634e-01 4.345596643180389446e-04 7.890063723638815647e-04
3.052999999999999941e-04 2.862671839140227270e-01 4.644058706720978241e-04 7.612775562167708662e-04
3.533000000000000224e-04 3.313503829113090826e-01 4.987577676308450197e-04 7.626578558207241024e-04
4.075999999999999871e-04 3.823564017794535141e-01 5.381334366106255759e-04 7.813048116943254948e-04
4.679999999999999915e-04 4.390986251953180042e-01 5.832692638200615834e-04 8.096035963157804938e-04
5.341000000000000261e-04 5.012024644415256081e-01 6.346556894078133086e-04 8.452514814113673558e-04
6.059000000000000366e-04 5.686690698184251325e-01 6.930641302632923034e-04 8.862253587289389486e-04
7.661000000000000275e-04 7.192254882508629654e-01 8.328184776562496576e-04 9.702780530519144065e-04
1.262000000000000101e-03 1.185459127778160093e+00 1.338484980802662205e-03 1.198863597978450275e-03
1.894999999999999983e-03 1.780909071169781921e+00 2.123481960401060308e-03 1.437771491635827115e-03
2.673000000000000029e-03 2.513147344746868850e+00 3.261860252001994032e-03 1.671524566936786766e-03
3.605999999999999830e-03 3.391736073717691369e+00 4.828136641022434151e-03 1.893900408978071038e-03
4.709999999999999777e-03 4.431905410739045870e+00 6.903512974832482635e-03 2.096551352830673849e-03
7.496000000000000059e-03 7.058993649504918366e+00 1.289742191321638018e-02 2.466596387205546859e-03
1.119999999999999989e-02 1.055540362104863661e+01 2.212077014004794340e-02 2.809304433764861584e-03
1.600000000000000033e-02 1.509117352747679952e+01 3.559566804390756900e-02 3.132325055719984222e-03
2.206999999999999934e-02 2.083310616724802244e+01 5.457322122755020599e-02 3.477840948757840792e-03
2.947999999999999926e-02 2.785007348564149154e+01 8.049103664263126956e-02 3.909302116317729670e-03
4.268000000000000266e-02 4.036707211535221518e+01 1.353887601042819133e-01 4.862066536253286525e-03
6.219999999999999835e-02 5.891246509830522626e+01 2.419691225623893105e-01 6.630786177272363080e-03
7.316999999999999893e-02 6.935151695866235855e+01 3.161896974764099033e-01 7.588671314871411888e-03
7.595999999999999974e-02 7.200836722020332559e+01 3.371250777904805096e-01 8.170805199905813859e-03
7.685877551020407761e-02 7.286441681227141487e+01 3.442082090738461941e-01 8.377599662802100861e-03
7.775755102040816935e-02 7.372055028187317305e+01 3.514710591182798605e-01 8.589021770365161054e-03
7.865632653061224722e-02 7.457676875944214601e+01 3.589175513325577604e-01 8.804875847672992764e-03
7.955510204081632508e-02 7.543307339346854690e+01 3.665514436085977601e-01 9.024966219803618600e-03
8.045387755102040295e-02 7.628946534801697510e+01 3.743763282772282763e-01 9.249097211835047294e-03
8.135265306122449469e-02 7.714594580035431193e+01 3.823956320606879955e-01 9.477073148845292783e-03
8.225142857142857256e-02 7.800251593868223665e+01 3.906126160217371912e-01 9.708698355912365532e-03
8.315020408163265042e-02 7.885917695996801058e+01 3.990303755092853288e-01 9.943777158114276010e-03
8.404897959183672829e-02 7.971593006786862645e+01 4.076518401004525782e-01 1.018211388052903468e-02
8.494775510204082003e-02 8.057277647074303673e+01 4.164797735390035616e-01 1.042351284823466590e-02
8.584653061224489790e-02 8.142971737974777113e+01 4.255167736701043202e-01 1.066777838630916450e-02
8.674530612244897576e-02 8.228675400701192189e+01 4.347652723713710810e-01 1.091471481983055311e-02
8.764408163265305363e-02 8.314388756388666479e+01 4.442275354801881737e-01 1.116412647387684219e-02
8.854285714285714537e-02 8.400111925926583467e+01 4.539056627172902703e-01 1.141581767352604741e-02
8.944163265306122323e-02 8.485845029797449968e+01 4.638015876066113874e-01 1.166959274385617057e-02
9.034040816326530110e-02 8.571588187922040447e+01 4.739170773914189172e-01 1.192525600994523254e-02
9.123918367346939284e-02 8.657341519510738692e+01 4.842537329467556662e-01 1.218261179687124031e-02
9.213795918367347071e-02 8.743105142920566664e+01 4.948129886882268180e-01 1.244146442971220956e-02
9.303673469387754857e-02 8.828879175517714373e+01 5.055961124771780613e-01 1.270161823354615249e-02
9.393551020408162644e-02 8.914663733545341984e+01 5.166042055223152296e-01 1.296287753345107784e-02
9.483428571428570431e-02 9.000458931996247713e+01 5.278382022778292937e-01 1.322504665450499779e-02
9.573306122448979605e-02 9.086264884490400107e+01 5.392988703380950932e-01 1.348792992178593150e-02
9.663183673469387391e-02 9.172081703156803201e+01 5.509868103290180841e-01 1.375133166037188250e-02
9.753061224489795178e-02 9.257909498519816793e+01 5.629024557961160857e-01 1.401505619534086644e-02
9.842938775510204352e-02 9.343748379389447223e+01 5.750460730894209060e-01 1.427890785177090074e-02
9.932816326530612139e-02 9.429598452755612925e+01 5.874177612452966546e-01 1.454269095473998200e-02
1.002269387755101993e-01 9.515459823686043705e+01 6.000174518652779954e-01 1.480620982932613801e-02
1.011257142857142910e-01 9.601332595227864886e+01 6.128449089920303683e-01 1.506926880060737751e-02
1.020244897959183689e-01 9.687216868312408735e+01 6.258997289825460886e-01 1.533167219366170578e-02
1.029232653061224467e-01 9.773112741663406666e+01 6.391813403786935632e-01 1.559322433356713847e-02
1.038220408163265246e-01 9.859020311708187023e+01 6.526890037752371976e-01 1.585372954540168952e-02
1.047208163265306025e-01 9.944939672491859994e+01 6.664218116854554452e-01 1.611299215424336767e-02
1.056195918367346942e-01 1.003087091559435748e+02 6.803786884044854544e-01 1.637081648517019900e-02
1.065183673469387721e-01 1.011681413005014036e+02 6.945583898705268711e-01 1.662700686326017141e-02
1.074171428571428499e-01 1.020276940227051909e+02 7.089595035240435772e-01 1.688136761359131099e-02
1.083159183673469417e-01 1.028873681596842005e+02 7.235804481651010311e-01 1.713370306124162995e-02
1.092146938775510195e-01 1.037471645208562592e+02 7.384194738089837617e-01 1.738381753128914395e-02
1.101134693877550974e-01 1.046070838872216484e+02 7.534746615402426739e-01 1.763151534881185131e-02
1.110122448979591891e-01 1.054671270106796186e+02 7.687439233653173831e-01 1.787660083888777812e-02
1.119110204081632531e-01 1.063272946133658508e+02 7.842250020638895647e-01 1.811887832659492964e-02
1.128097959183673449e-01 1.071875873870099269e+02 7.999154710391255252e-01 1.835815213701132154e-02
1.137085714285714227e-01 1.080480059923115022e+02 8.158127341669576538e-01 1.859422659521495907e-02
1.146073469387755006e-01 1.089085510583360445e+02 8.319140256445773929e-01 1.882690602628386140e-02
1.155061224489795924e-01 1.097692231819272877e+02 8.482164098382938278e-01 1.905599475529604070e-02
1.164048979591836702e-01 1.106300229271377304e+02 8.647167811309270924e-01 1.928129710732950225e-02
1.173036734693877481e-01 1.114909508246750249e+02 8.814118637689073443e-01 1.950261740746226866e-02
1.182024489795918398e-01 1.123520073713639960e+02 8.982982117092441765e-01 1.971975998077234171e-02
1.191012244897959177e-01 1.132131930296243070e+02 9.153722084665417702e-01 1.993252915233773709e-02
1.199999999999999956e-01 1.140745082269623083e+02 9.326300669602354265e-01 2.014072924723646699e-02
1.222930479660371966e-01 1.162725745271887092e+02 9.774692566534928240e-01 2.065795366948748601e-02
1.245860959320743977e-01 1.184714924338977369e+02 1.023468317668073890e+00 2.117987456856806894e-02
1.268791438981115849e-01 1.206712677254283932e+02 1.070638627123565279e+00 2.170652565965574404e-02
1.291721918641487998e-01 1.228719061778673449e+02 1.118991673219534411e+00 2.223795494387638752e-02
1.314652398301859870e-01 1.250734135674181289e+02 1.168539086700740359e+00 2.277422439995750031e-02
1.337582877962231742e-01 1.272757956731491191e+02 1.219292671712783660e+00 2.331540966714218399e-02
1.360513357622603892e-01 1.294790582800771404e+02 1.271264436030488110e+00 2.386159972081049879e-02
1.383443837282975764e-01 1.316832071825463686e+02 1.324466620644278336e+00 2.441289654214236562e-02
1.406374316943347913e-01 1.338882481878692943e+02 1.378911728692547856e+00 2.496941478304522122e-02
1.429304796603719785e-01 1.360941871201959259e+02 1.434612553730503004e+00 2.553128142747851728e-02
1.452235276264091657e-01 1.383010298245834235e+02 1.491582207328333798e+00 2.609863545021687270e-02
1.475165755924463806e-01 1.405087821712388632e+02 1.549834145993685075e+00 2.667162747401667297e-02
1.498096235584835678e-01 1.427174500599113003e+02 1.609382197415428983e+00 2.725041942607859050e-02
1.521026715245207828e-01 1.449270394244122997e+02 1.670240586027604612e+00 2.783518419463301349e-02
1.543957194905579700e-01 1.471375562372431602e+02 1.732423957894104083e+00 2.842610528641648093e-02
1.566887674565951571e-01 1.493490065143121512e+02 1.795947404916348189e+00 2.902337648575360404e-02
1.589818154226323721e-01 1.515613963197261285e+02 1.860826488367673059e+00 2.962720151590880410e-02
1.612748633886695593e-01 1.537747317706380272e+02 1.927077261759603699e+00 3.023779370332952549e-02
1.635679113547067742e-01 1.559890190421416207e+02 1.994716293046529421e+00 3.085537564536116120e-02
1.658609593207439614e-01 1.582042643721963771e+02 2.063760686176537185e+00 3.148017888197829350e-02
1.681540072867811486e-01 1.604204740665756788e+02 2.134228101997396987e+00 3.211244357204432603e-02
1.704470552528183358e-01 1.626376545038232280e+02 2.206136778527788778e+00 3.275241817458254129e-02
1.727401032188555507e-01 1.648558121402139989e+02 2.279505550604974395e+00 3.340035913551536034e-02
1.750331511848927657e-01 1.670749535147067775e+02 2.354353868921131188e+00 3.405653058030635311e-02
1.773261991509299529e-01 1.692950852538826041e+02 2.430701818461579844e+00 3.472120401291924063e-02
1.796192471169671401e-01 1.715162140768642018e+02 2.508570136359080660e+00 3.539465802149094342e-02
1.819122950830043273e-01 1.737383468002062159e+02 2.587980229179302150e+00 3.607717799110093937e-02
1.842053430490415422e-01 1.759614903427550985e+02 2.668954189653487852e+00 3.676905582400760708e-02
1.864983910150787572e-01 1.781856517304707097e+02 2.751514812875209159e+00 3.747058966771114885e-02
1.887914389811159444e-01 1.804108381012070765e+02 2.835685611978987719e+00 3.818208365119665076e-02
1.910844869471531315e-01 1.826370567094494675e+02 2.921490833319412506e+00 3.890384762970360705e-02
1.933775349131903187e-01 1.848643149310015303e+02 3.008955471170237317e+00 3.963619693836639007e-02
1.956705828792275337e-01 1.870926202676225216e+02 3.098105281963811741e+00 4.037945215506716368e-02
1.979636308452647486e-01 1.893219803516120692e+02 3.188966798092037092e+00 4.113393887284418765e-02
2.002566788113019358e-01 1.915524029503379495e+02 3.281567341290930528e+00 4.189998748220023078e-02
2.025497267773391230e-01 1.937838959707109723e+02 3.375935035631733250e+00 4.267793296365943873e-02
2.048427747433763102e-01 1.960164674635982465e+02 3.472098820142405895e+00 4.346811469092701913e-02
2.071358227094135251e-01 1.982501256281805695e+02 3.570088461084268250e+00 4.427087624501276769e-02
2.094288706754507123e-01 2.004848788162511255e+02 3.669934563909463598e+00 4.508656523968884722e-02
2.117219186414879273e-01 2.027207355364532759e+02 3.771668584925918388e+00 4.591553315866134938e-02
2.140149666075251145e-01 2.049577044584620751e+02 3.875322842697410231e+00 4.675813520484793651e-02
2.163080145735623017e-01 2.071957944171057591e+02 3.980930529207451052e+00 4.761473016216549031e-02
2.186010625395995166e-01 2.094350144164303060e+02 4.088525720816684306e+00 4.848568027024717508e-02
2.208941105056367038e-01 2.116753736337073235e+02 4.198143389044653340e+00 4.937135111252249908e-02
2.231871584716739187e-01 2.139168814233864282e+02 4.309819411207923778e+00 5.027211151811204065e-02
2.254802064377111059e-01 2.161595473209954719e+02 4.423590580947720063e+00 5.118833347800409717e-02
2.277732544037482931e-01 2.184033810469856576e+02 4.539494618681522375e+00 5.212039207600151214e-02
2.300663023697855081e-01 2.206483925105302433e+02 4.657570182014310056e+00 5.306866543494524052e-02
2.323593503358226953e-01 2.228945918132730526e+02 4.777856876146531206e+00 5.403353467874189714e-02
3.092499758391732412e-01 2.998690390186001764e+02 1.708719728989557041e+01 2.607369404222942832e-01
3.861406013425238148e-01 3.817571541694793495e+02 4.733075077847331613e+01 4.674403461658467873e-01
4.630312268458743885e-01 4.714783920489855973e+02 9.924607726245463368e+01 6.741437519093992359e-01
5.399218523492249622e-01 5.710761847477889432e+02 1.543486251697164562e+02 4.483063995538678070e-01
6.168124778525755358e-01 6.775729829053859703e+02 2.009034035570891206e+02 4.273234418806409751e-01
6.937031033559259985e-01 7.899595870543294041e+02 2.493022170560350332e+02 4.340712131169192078e-01
7.705937288592765722e-01 9.078917573524577165e+02 3.008874184445422202e+02 4.408189843531974406e-01
8.474843543626271458e-01 1.031083527051586998e+03 3.538517030809571224e+02 4.198879475479391776e-01
9.243749798659777195e-01 1.158961751550882354e+03 4.025806092468251336e+02 3.441181140372312486e-01
1.001265605369328293e+00 1.290541822296945611e+03 4.427892396041103211e+02 2.683482805265232640e-01
1.078156230872678867e+00 1.424851569439225386e+03 4.736862804912868228e+02 1.925784470158153350e-01
1.155046856376029440e+00 1.561118246486087173e+03 4.983511732834003283e+02 1.696248863035449694e-01
1.231937481879380014e+00 1.699087874014968520e+03 5.260084636020321796e+02 2.308461191681649705e-01
1.308828107382730588e+00 1.839050344270996902e+03 5.626426531308175072e+02 2.920673520327849992e-01
1.385718732886081161e+00 1.981426850034815971e+03 6.086339101653059060e+02 3.532885848974050003e-01
1.462609358389431735e+00 2.126563711915368458e+03 6.613318014943052958e+02 3.726898786708844336e-01
1.539499983892782309e+00 2.274570359719560201e+03 7.178299209530032385e+02 3.905767601804042144e-01
1.616390609396132882e+00 2.425492609425981300e+03 7.781407924486197771e+02 4.084636416899240507e-01
1.693281234899483456e+00 2.579376019074429223e+03 8.423877528298007746e+02 4.263505231994438316e-01
1.770171860402834030e+00 2.736267679857018265e+03 9.106972514375651144e+02 4.442374047089636124e-01
1.847062485906184603e+00 2.896206689050092336e+03 9.823816443851409304e+02 4.520990968276852873e-01
1.923953111409535177e+00 3.059169453375385274e+03 1.055352203624182266e+03 4.436065002669313806e-01
2.000843736912885529e+00 3.225047380281004735e+03 1.128220330121749839e+03 4.351139037061775294e-01
2.077734362416236102e+00 3.393722524979060836e+03 1.200885639529501304e+03 4.266213071454236228e-01
