# density  energy_density  pressure   sound_speed_squared  [All in nuclear units]
2.720000000000000022e-14 2.529924618736292620e-11 1.061056609100270887e-19 3.766610435412189122e-08
1.269999999999999890e-13 1.181251617980081254e-10 4.870113551826584858e-18 6.497781477172163475e-08
6.929999999999999754e-13 6.445728594625782745e-10 1.018299070687946017e-16 3.033770597342807186e-07
6.295000000000000137e-12 5.855111460395753757e-09 5.487150723824490656e-15 1.763710043904196507e-06
1.581000000000000150e-11 1.470523320212576141e-08 2.904239460150760759e-14 3.559434472327477622e-06
3.971999999999999958e-11 3.694456170323160790e-08 1.439340266754906811e-13 6.772854871245677111e-06
9.975999999999999982e-11 9.278976412613005154e-08 6.812143616221268841e-13 1.246890511177539320e-05
2.505999999999999928e-10 2.330928829758143313e-07 3.107749196951638608e-12 2.212095130576091967e-05
6.294000000000000186e-10 5.854398883216247602e-07 1.363250409771533549e-11 3.761981047239428883e-05
1.581000000000000021e-09 1.470619631082054101e-06 5.726014178088476303e-11 6.095350986710739404e-05
3.971999999999999932e-09 3.694861084648016046e-06 2.210019573374265380e-10 8.628023653304385055e-05
5.000000000000000105e-09 4.651201787816927976e-06 3.071485916280120014e-10 9.387863480799757518e-05
9.975999999999999465e-09 9.280587964640925786e-06 8.385361004129998845e-10 1.356922228656245837e-04
1.989999999999999952e-08 1.851419242998081003e-05 2.287763168863418088e-09 1.782101978513718314e-04
3.972999999999999908e-08 3.696699295748789187e-05 6.061583099087538954e-09 2.308134738384234820e-04
7.925999999999999637e-08 7.375765469301719828e-05 1.575347858094044765e-08 2.960532096713864875e-04
1.580999999999999930e-07 1.471491184379128891e-04 3.910429618672550719e-08 3.402859755131850544e-04
1.991000000000000027e-07 1.853209783927820692e-04 5.252045687899177454e-08 3.626488188833278743e-04
3.155999999999999938e-07 2.938002528823880299e-04 9.730770378831954314e-08 4.630767356912104081e-04
5.000999999999999849e-07 4.656344063839075714e-04 1.837494945860225819e-07 5.430301232045120323e-04
6.295999999999999732e-07 5.862651417037388971e-04 2.503103884558263872e-07 5.605192962670089638e-04
9.666999999999999941e-07 9.003386739730535665e-04 4.324450868778576936e-07 5.993081670211623108e-04
1.531999999999999901e-06 1.427170885631398036e-03 7.780217275717420968e-07 7.125938556504039095e-04
2.506999999999999883e-06 2.336134972129507662e-03 1.471005394641589826e-06 8.121876172121876309e-04
3.974000000000000407e-06 3.704315759716615697e-03 2.695705763844323844e-06 9.780674166779417152e-04
4.830000000000000343e-06 4.502887798316278223e-03 3.503988717694660908e-06 1.046253037768318664e-03
6.080999999999999885e-06 5.670217999231269741e-03 4.731126407333307547e-06 1.056224360839501646e-03
7.930000000000000308e-06 7.396012414119570652e-03 6.599662989063778187e-06 1.109203753630785610e-03
9.982000000000000313e-06 9.311815711689977113e-03 8.879881089227186733e-06 1.271216815433141075e-03
1.256999999999999993e-05 1.172874412604260098e-02 1.207676739913533738e-05 1.374195438212825332e-03
1.521999999999999997e-05 1.420427250933824909e-02 1.547541302213394990e-05 1.371610497379100249e-03
1.991000000000000080e-05 1.858690797761085312e-02 2.160710455847765458e-05 1.426578142835871997e-03
2.506999999999999883e-05 2.341050104039446925e-02 2.908031724375689851e-05 1.672007475975408053e-03
2.790999999999999875e-05 2.606604784714952258e-02 3.357009132255487721e-05 1.709425557744154774e-03
3.806999999999999973e-05 3.556967988784798945e-02 4.986781576435106434e-05 1.720407281314112165e-03
5.063000000000000145e-05 4.732434580343149871e-02 7.073400252905581275e-05 1.829889149838781265e-03
6.592000000000000583e-05 6.164112392498975052e-02 9.765037643900635188e-05 1.930242980462695823e-03
8.433000000000000066e-05 7.888776783401378612e-02 1.317235490470395893e-04 2.021055815200022837e-03
1.062000000000000064e-04 9.938561165478684845e-02 1.740088341640037047e-04 2.104789529260958983e-03
1.321000000000000126e-04 1.236720406455826121e-01 2.260189757651373944e-04 2.178291718403657477e-03
1.623999999999999901e-04 1.520974545104751274e-01 2.888169908545388338e-04 2.240170365918073281e-03
1.689999999999999879e-04 1.582907717069566844e-01 3.027354772999506964e-04 2.254509350360745651e-03
1.758999999999999930e-04 1.647661861691531171e-01 3.173785841705756782e-04 2.268169273277113179e-03
1.830000000000000029e-04 1.714298948183871907e-01 3.325196584577469103e-04 2.276170334580628063e-03
1.901999999999999882e-04 1.781880600978280049e-01 3.479577791899843742e-04 2.292561569242367037e-03
1.977000000000000079e-04 1.852284385240466902e-01 3.641242634600037713e-04 2.299943765467868384e-03
2.054000000000000053e-04 1.924572004474696396e-01 3.808304060475003897e-04 2.322187632288155723e-03
2.079000000000000119e-04 1.948043378760714872e-01 3.864137987380476553e-04 2.435429768083530178e-03
2.081999999999999921e-04 1.950859988578999005e-01 3.870314100985603909e-04 1.950065624557156818e-03
2.090999999999999868e-04 1.959309855029948977e-01 3.881261957135444685e-04 6.411875526909013856e-04
2.159999999999999919e-04 2.024093317906446865e-01 3.940874488768042125e-04 1.199166870571831411e-03
2.231000000000000019e-04 2.090756740932291913e-01 4.013938420547467825e-04 9.928616047829054436e-04
2.311000000000000066e-04 2.165873044433437034e-01 4.085241694843774404e-04 9.056166966301716637e-04
2.401000000000000085e-04 2.250381721984245909e-01 4.159700687886608468e-04 8.565463878902855599e-04
2.500000000000000052e-04 2.343344406330727658e-01 4.237602369176299592e-04 8.194318812157330018e-04
2.642999999999999733e-04 2.477629128650125634e-01 4.345596643180389446e-04 7.890063723638815647e-04
3.052999999999999941e-04 2.862671839140227270e-01 4.644058706720978241e-04 7.612775562167708662e-04
3.533000000000000224e-04 3.313503829113090826e-01 4.987577676308450197e-04 7.626578558207241024e-04
4.075999999999999871e-04 3.823564017794535141e-01 5.381334366106255759e-04 7.813048116943254948e-04
4.679999999999999915e-04 4.390986251953180042e-01 5.832692638200615834e-04 8.096035963157804938e-04
5.341000000000000261e-04 5.012024644415256081e-01 6.346556894078133086e-04 8.452514814113673558e-04
6.059000000000000366e-04 5.686690698184251325e-01 6.930641302632923034e-04 8.862253587289389486e-04
7.661000000000000275e-04 7.192254882508629654e-01 8.328184776562496576e-04 9.702780530519144065e-04
1.262000000000000101e-03 1.185459127778160093e+00 1.338484980802662205e-03 1.198863597978450275e-03
1.894999999999999983e-03 1.780909071169781921e+00 2.123481960401060308e-03 1.437771491635827115e-03
2.673000000000000029e-03 2.513147344746868850e+00 3.261860252001994032e-03 1.671524566936786766e-03
3.605999999999999830e-03 3.391736073717691369e+00 4.828136641022434151e-03 1.893900408978071038e-03
4.709999999999999777e-03 4.431905410739045870e+00 6.903512974832482635e-03 2.096551352830673849e-03
7.496000000000000059e-03 7.058993649504918366e+00 1.289742191321638018e-02 2.466596387205546859e-03
1.119999999999999989e-02 1.055540362104863661e+01 2.212077014004794340e-02 2.809304433764861584e-03
1.600000000000000033e-02 1.509117352747679952e+01 3.559566804390756900e-02 3.132325055719984222e-03
2.206999999999999934e-02 2.083310616724802244e+01 5.457322122755020599e-02 3.477840948757840792e-03
2.947999999999999926e-02 2.785007348564149154e+01 8.049103664263126956e-02 3.909302116317729670e-03
4.268000000000000266e-02 4.036707211535221518e+01 1.353887601042819133e-01 4.862066536253286525e-03
6.219999999999999835e-02 5.891246509830522626e+01 2.419691225623893105e-01 6.630786177272363080e-03
7.316999999999999893e-02 6.935151695866235855e+01 3.161896974764099033e-01 7.588671314871411888e-03
7.595999999999999974e-02 7.200836722020332559e+01 3.371250777904805096e-01 8.170805199905812125e-03
7.685877551020407761e-02 7.286441681425409911e+01 3.442085483791486045e-01 8.378392308711738595e-03
7.775755102040816935e-02 7.372055029532546655e+01 3.514726878118015763e-01 8.591240944490345297e-03
7.865632653061224722e-02 7.457676880811740716e+01 3.589220096012520345e-01 8.809265315383497247e-03
7.955510204081632508e-02 7.543307352234070606e+01 3.665609560904826703e-01 9.032379629533061199e-03
8.045387755102040295e-02 7.628946563106481449e+01 3.743938984659782032e-01 9.260498095080907377e-03
8.135265306122449469e-02 7.714594634914037385e+01 3.824251367701069770e-01 9.493534920168906002e-03
8.225142857142857256e-02 7.800251691169124513e+01 3.906588999124515071e-01 9.731404312938920359e-03
8.315020408163265042e-02 7.885917857267223496e+01 3.990993456799999950e-01 9.974020481532818935e-03
8.404897959183672829e-02 7.971593260349025911e+01 4.077505607461131554e-01 1.022129763409247195e-02
8.494775510204082003e-02 8.057278029168324451e+01 4.166165606781922492e-01 1.047314997875975137e-02
8.584653061224489790e-02 8.142972293965634378e+01 4.257012899439777676e-01 1.072949172367651006e-02
8.674530612244897576e-02 8.228676186347017563e+01 4.350086219164176482e-01 1.099023707698462693e-02
8.764408163265305363e-02 8.314389839167995433e+01 4.445423588770447410e-01 1.125530024682597392e-02
8.854285714285714537e-02 8.400113386422157191e+01 4.543062320178135605e-01 1.152459544134241606e-02
8.944163265306122323e-02 8.485846963134393661e+01 4.643039014413472554e-01 1.179803686867580970e-02
9.034040816326530110e-02 8.571590705258323339e+01 4.745389561595549366e-01 1.207553873696803719e-02
9.123918367346939284e-02 8.657344749577853804e+01 4.850149140905779532e-01 1.235701525436096182e-02
9.213795918367347071e-02 8.743109233612599951e+01 4.957352220540324761e-01 1.264238062899644688e-02
9.303673469387754857e-02 8.828884295526984261e+01 5.067032557645195778e-01 1.293154906901636605e-02
9.393551020408162644e-02 8.914670074042885517e+01 5.179223198233727787e-01 1.322443478256258437e-02
9.483428571428570431e-02 9.000466708355533285e+01 5.293956477086222412e-01 1.352095197777696683e-02
9.573306122448979605e-02 9.086274338052673727e+01 5.411264017631545187e-01 1.382101486280139235e-02
9.663183673469387391e-02 9.172093103036712591e+01 5.531176731810497627e-01 1.412453764577771727e-02
9.753061224489795178e-02 9.257923143449731640e+01 5.653724819920842304e-01 1.443143453484781180e-02
9.842938775510204352e-02 9.343764599601297505e+01 5.778937770443831612e-01 1.474161973815354965e-02
9.932816326530612139e-02 9.429617611898834184e+01 5.906844359852158055e-01 1.505500746383679235e-02
1.002269387755101993e-01 9.515482320780547809e+01 6.037472652399280548e-01 1.537151192003941014e-02
1.011257142857142910e-01 9.601358866650717516e+01 6.170849999890025694e-01 1.569104731490327323e-02
1.020244897959183689e-01 9.687247389817268584e+01 6.307003041432476254e-01 1.601352785657024491e-02
1.029232653061224467e-01 9.773148030431487143e+01 6.445957703171133479e-01 1.633886775318219020e-02
1.038220408163265246e-01 9.859060928429896364e+01 6.587739198001340002e-01 1.666698121288098453e-02
1.047208163265306025e-01 9.944986223478055365e+01 6.732372025265009885e-01 1.699778244380849637e-02
1.056195918367346942e-01 1.003092405491627090e+02 6.879879970427709157e-01 1.733118565410659423e-02
1.065183673469387721e-01 1.011687456170711670e+02 7.030286104737123454e-01 1.766710505191713271e-02
1.074171428571428499e-01 1.020283788238477030e+02 7.183612784863023792e-01 1.800545484538199070e-02
1.083159183673469417e-01 1.028881415500590890e+02 7.339881652518783772e-01 1.834614924264304017e-02
1.092146938775510195e-01 1.037480351710228064e+02 7.499113634064551448e-01 1.868910245184213920e-02
1.101134693877550974e-01 1.046080610563475375e+02 7.661328940092227979e-01 1.903422868112115973e-02
1.110122448979591891e-01 1.054682205694887926e+02 7.826547064992320779e-01 1.938144213862197374e-02
1.119110204081632531e-01 1.063285150673180368e+02 7.994786786502838805e-01 1.973065703248643582e-02
1.128097959183673449e-01 1.071889458997058568e+02 8.166066165240412067e-01 2.008178757085643182e-02
1.137085714285714227e-01 1.080495144091172506e+02 8.340402544213685321e-01 2.043474796187381981e-02
1.146073469387755006e-01 1.089102219302206009e+02 8.517812548319293464e-01 2.078945241368046482e-02
1.155061224489795924e-01 1.097710697895069956e+02 8.698312083820484153e-01 2.114581513441824226e-02
1.164048979591836702e-01 1.106320593049218957e+02 8.881916337808614115e-01 2.150375033222901022e-02
1.173036734693877481e-01 1.114931917855079462e+02 9.068639777647736766e-01 2.186317221525464760e-02
1.182024489795918398e-01 1.123544685310574067e+02 9.258496150402437674e-01 2.222399499163702635e-02
1.191012244897959177e-01 1.132158908317756527e+02 9.451498482249143240e-01 2.258613286951799068e-02
1.199999999999999956e-01 1.140774599679537147e+02 9.647659077871154620e-01 2.294950005703942988e-02
1.218639001432319097e-01 1.158646755048195160e+02 1.006460837754064030e+00 2.370947688849827165e-02
1.237278002864638238e-01 1.176525393562034338e+02 1.049545681993553803e+00 2.448740776270928732e-02
1.255917004296957518e-01 1.194410629464138935e+02 1.094054056774028449e+00 2.528354286320784461e-02
1.274556005729276520e-01 1.212302578633943142e+02 1.140020096853861187e+00 2.609813672957911335e-02
1.293195007161595800e-01 1.230201358592006784e+02 1.187478465673894812e+00 2.693144816285131943e-02
1.311834008593914802e-01 1.248107088505976350e+02 1.236464365456091175e+00 2.778374012600703935e-02
1.330473010026234082e-01 1.266019889197626469e+02 1.287013547201519614e+00 2.865527963993578023e-02
1.349112011458553084e-01 1.283939883150911214e+02 1.339162320581428478e+00 2.954633767513017983e-02
1.367751012890872364e-01 1.301867194520926034e+02 1.392947563715690285e+00 3.045718903940070749e-02
1.386390014323191366e-01 1.319801949143697755e+02 1.448406732833332766e+00 3.138811226186887654e-02
1.405029015755510646e-01 1.337744274546753900e+02 1.505577871810350299e+00 3.233938947347496373e-02
1.423668017187829649e-01 1.355694299960373144e+02 1.564499621580334843e+00 3.331130628422464962e-02
1.442307018620148928e-01 1.373652156329476384e+02 1.625211229413889846e+00 3.430415165738138344e-02
1.460946020052467931e-01 1.391617976326098756e+02 1.687752558063083663e+00 3.531821778079859142e-02
1.479585021484787211e-01 1.409591894362372670e+02 1.752164094767576952e+00 3.635379993558311013e-02
1.498224022917106213e-01 1.427574046603993168e+02 1.818486960119265028e+00 3.741119636220848615e-02
1.516863024349425493e-01 1.445564570984094530e+02 1.886762916782683597e+00 3.849070812437332956e-02
1.535502025781744495e-01 1.463563607217518268e+02 1.957034378068586822e+00 3.959263897057737486e-02
1.554141027214063775e-01 1.481571296815417043e+02 2.029344416358374925e+00 4.071729519369819000e-02
1.572780028646382777e-01 1.499587783100155605e+02 2.103736771377287429e+00 4.186498548865131425e-02
1.591419030078702057e-01 1.517613211220481730e+02 2.180255858314524176e+00 4.303602080827583637e-02
1.610058031511021059e-01 1.535647728166923400e+02 2.258946775788595485e+00 4.423071421757208271e-02
1.628697032943340339e-01 1.553691482787392033e+02 2.339855313656480806e+00 4.544938074641438619e-02
1.647336034375659342e-01 1.571744625802948008e+02 2.423027960665274705e+00 4.669233724085672388e-02
1.665975035807978621e-01 1.589807309823720800e+02 2.508511911945264128e+00 4.795990221314624935e-02
1.684614037240297624e-01 1.607879689364933995e+02 2.596355076343467960e+00 4.925239569055615829e-02
1.703253038672616904e-01 1.625961920863031764e+02 2.686606083596914107e+00 5.057013906314770935e-02
1.721892040104935906e-01 1.644054162691869863e+02 2.779314291345009291e+00 5.191345493056775950e-02
1.740531041537255186e-01 1.662156575178965738e+02 2.874529791980592108e+00 5.328266694798833303e-02
1.759170042969574188e-01 1.680269320621759448e+02 2.972303419339324293e+00 5.467809967129192567e-02
1.777809044401893468e-01 1.698392563303909242e+02 3.072686755227310051e+00 5.610007840160653042e-02
1.796448045834212470e-01 1.716526469511559583e+02 3.175732135786887067e+00 5.754892902929345522e-02
1.815087047266531750e-01 1.734671207549596375e+02 3.281492657700768589e+00 5.902497787749123870e-02
1.833726048698851030e-01 1.752826947757858989e+02 3.390022184234761315e+00 6.052855154531825571e-02
1.852365050131170032e-01 1.770993862527304259e+02 3.501375351119510704e+00 6.205997675083903958e-02
1.871004051563489035e-01 1.789172126316094875e+02 3.615607572271807957e+00 6.361958017389800213e-02
1.889643052995808314e-01 1.807361915665620131e+02 3.732775045356148347e+00 6.520768829892686913e-02
1.908282054428127594e-01 1.825563409216415494e+02 3.852934757187379766e+00 6.682462725783322455e-02
1.926921055860446597e-01 1.843776787723982693e+02 3.976144488975429603e+00 6.847072267307829918e-02
1.945560057292765599e-01 1.862002234074502383e+02 4.102462821413221050e+00 7.014629950105590039e-02
1.964199058725084879e-01 1.880239933300421455e+02 4.231949139609044508e+00 7.185168187588482358e-02
1.982838060157404159e-01 1.898490072595901665e+02 4.364663637864816259e+00 7.358719295372985469e-02
2.001477061589723161e-01 1.916752841332144612e+02 4.500667324301798722e+00 7.535315475776981076e-02
2.020116063022042163e-01 1.935028431072557282e+02 4.640022025335521327e+00 7.714988802393345224e-02
2.038755064454361443e-01 1.953317035587770647e+02 4.782790390001782299e+00 7.897771204752622454e-02
2.057394065886680723e-01 1.971618850870493418e+02 4.929035894135807006e+00 8.083694453087596210e-02
2.076033067318999725e-01 1.989934075150201807e+02 5.078822844406820636e+00 8.272790143212739589e-02
2.094672068751318728e-01 2.008262908907658471e+02 5.232216382210435945e+00 8.465089681531934307e-02
2.113311070183638007e-01 2.026605554889250413e+02 5.389282487421462875e+00 8.660624270188299612e-02
2.886508803445196336e-01 2.806753017667014092e+02 1.796705056660935185e+01 2.320503379073912686e-01
3.659706536706754942e-01 3.633736315077536574e+02 4.108991227879928942e+01 3.239537605588894698e-01
4.432904269968312994e-01 4.519074460066603365e+02 7.400467280515560731e+01 4.158571832103875598e-01
5.206102003229871045e-01 5.469144166348150975e+02 1.142049681901852267e+02 4.303348704566726246e-01
5.979299736491429096e-01 6.481639582754785351e+02 1.575214086693122795e+02 4.259650377899436569e-01
6.752497469752988257e-01 7.551558962348495925e+02 2.028344867902505086e+02 4.215952051232146336e-01
7.525695203014546308e-01 8.674459746592674492e+02 2.499062583075485122e+02 4.172253724564856658e-01
8.298892936276104360e-01 9.845782305825671301e+02 2.958441436633858643e+02 3.686576842279449262e-01
9.072090669537662411e-01 1.105788758662010196e+03 3.371144095664278666e+02 3.135682406532800948e-01
9.845288402799220462e-01 1.230278469826916989e+03 3.726646300657353663e+02 2.584787970786153188e-01
1.061848613606078073e+00 1.357317645457150775e+03 4.019616629776542140e+02 2.033893535039503486e-01
1.139168386932233767e+00 1.486249221018128537e+03 4.246061988003233409e+02 1.482999099292856005e-01
1.216488160258389684e+00 1.616482463375838961e+03 4.403159277803601981e+02 9.321046635462076901e-02
1.293807933584545600e+00 1.747487247400615161e+03 4.489104969563110217e+02 3.812102277995588206e-02
1.371127706910701294e+00 1.878845469798302929e+03 4.522256829324718979e+02 1.237417643572332610e-02
1.448447480236857210e+00 2.010358645033976472e+03 4.544348080436586770e+02 2.121731759846202936e-02
1.525767253563013126e+00 2.142020269575770726e+03 4.578108442766861117e+02 3.006045876120073262e-02
1.603087026889168820e+00 2.273882109217117886e+03 4.623581902597256885e+02 3.890359992393940813e-02
1.680406800215324736e+00 2.405991170096708174e+03 4.680824139568712212e+02 4.774674108667811834e-02
1.757726573541480430e+00 2.538390407631256039e+03 4.749901208057267468e+02 5.658988224941679385e-02
1.835046346867636347e+00 2.671119305181510754e+03 4.830888453753602789e+02 6.543302341215549711e-02
1.912366120193792263e+00 2.804214350841245960e+03 4.923869615814384133e+02 7.427616457489419344e-02
1.989685893519947957e+00 2.937709433659657407e+03 5.028936077063524408e+02 8.311930573763287589e-02
2.067005666846103651e+00 3.071636175499383171e+03 5.146186233512482886e+02 9.196244690037154446e-02
