# density  energy_density  pressure   sound_speed_squared  [All in nuclear units]
2.720000000000000022e-14 2.529924618736292620e-11 1.061056609100270887e-19 3.766610435412189122e-08
1.269999999999999890e-13 1.181251617980081254e-10 4.870113551826584858e-18 6.497781477172163475e-08
6.929999999999999754e-13 6.445728594625782745e-10 1.018299070687946017e-16 3.033770597342807186e-07
6.295000000000000137e-12 5.855111460395753757e-09 5.487150723824490656e-15 1.763710043904196507e-06
1.581000000000000150e-11 1.470523320212576141e-08 2.904239460150760759e-14 3.559434472327477622e-06
3.971999999999999958e-11 3.694456170323160790e-08 1.439340266754906811e-13 6.772854871245677111e-06
9.975999999999999982e-11 9.278976412613005154e-08 6.812143616221268841e-13 1.246890511177539320e-05
2.505999999999999928e-10 2.330928829758143313e-07 3.107749196951638608e-12 2.212095130576091967e-05
6.294000000000000186e-10 5.854398883216247602e-07 1.363250409771533549e-11 3.761981047239428883e-05
1.581000000000000021e-09 1.470619631082054101e-06 5.726014178088476303e-11 6.095350986710739404e-05
3.971999999999999932e-09 3.694861084648016046e-06 2.210019573374265380e-10 8.628023653304385055e-05
5.000000000000000105e-09 4.651201787816927976e-06 3.071485916280120014e-10 9.387863480799757518e-05
9.975999999999999465e-09 9.280587964640925786e-06 8.385361004129998845e-10 1.356922228656245837e-04
1.989999999999999952e-08 1.851419242998081003e-05 2.287763168863418088e-09 1.782101978513718314e-04
3.972999999999999908e-08 3.696699295748789187e-05 6.061583099087538954e-09 2.308134738384234820e-04
7.925999999999999637e-08 7.375765469301719828e-05 1.575347858094044765e-08 2.960532096713864875e-04
1.580999999999999930e-07 1.471491184379128891e-04 3.910429618672550719e-08 3.402859755131850544e-04
1.991000000000000027e-07 1.853209783927820692e-04 5.252045687899177454e-08 3.626488188833278743e-04
3.155999999999999938e-07 2.938002528823880299e-04 9.730770378831954314e-08 4.630767356912104081e-04
5.000999999999999849e-07 4.656344063839075714e-04 1.837494945860225819e-07 5.430301232045120323e-04
6.295999999999999732e-07 5.862651417037388971e-04 2.503103884558263872e-07 5.605192962670089638e-04
9.666999999999999941e-07 9.003386739730535665e-04 4.324450868778576936e-07 5.993081670211623108e-04
1.531999999999999901e-06 1.427170885631398036e-03 7.780217275717420968e-07 7.125938556504039095e-04
2.506999999999999883e-06 2.336134972129507662e-03 1.471005394641589826e-06 8.121876172121876309e-04
3.974000000000000407e-06 3.704315759716615697e-03 2.695705763844323844e-06 9.780674166779417152e-04
4.830000000000000343e-06 4.502887798316278223e-03 3.503988717694660908e-06 1.046253037768318664e-03
6.080999999999999885e-06 5.670217999231269741e-03 4.731126407333307547e-06 1.056224360839501646e-03
7.930000000000000308e-06 7.396012414119570652e-03 6.599662989063778187e-06 1.109203753630785610e-03
9.982000000000000313e-06 9.311815711689977113e-03 8.879881089227186733e-06 1.271216815433141075e-03
1.256999999999999993e-05 1.172874412604260098e-02 1.207676739913533738e-05 1.374195438212825332e-03
1.521999999999999997e-05 1.420427250933824909e-02 1.547541302213394990e-05 1.371610497379100249e-03
1.991000000000000080e-05 1.858690797761085312e-02 2.160710455847765458e-05 1.426578142835871997e-03
2.506999999999999883e-05 2.341050104039446925e-02 2.908031724375689851e-05 1.672007475975408053e-03
2.790999999999999875e-05 2.606604784714952258e-02 3.357009132255487721e-05 1.709425557744154774e-03
3.806999999999999973e-05 3.556967988784798945e-02 4.986781576435106434e-05 1.720407281314112165e-03
5.063000000000000145e-05 4.732434580343149871e-02 7.073400252905581275e-05 1.829889149838781265e-03
6.592000000000000583e-05 6.164112392498975052e-02 9.765037643900635188e-05 1.930242980462695823e-03
8.433000000000000066e-05 7.888776783401378612e-02 1.317235490470395893e-04 2.021055815200022837e-03
1.062000000000000064e-04 9.938561165478684845e-02 1.740088341640037047e-04 2.104789529260958983e-03
1.321000000000000126e-04 1.236720406455826121e-01 2.260189757651373944e-04 2.178291718403657477e-03
1.623999999999999901e-04 1.520974545104751274e-01 2.888169908545388338e-04 2.240170365918073281e-03
1.689999999999999879e-04 1.582907717069566844e-01 3.027354772999506964e-04 2.254509350360745651e-03
1.758999999999999930e-04 1.647661861691531171e-01 3.173785841705756782e-04 2.268169273277113179e-03
1.830000000000000029e-04 1.714298948183871907e-01 3.325196584577469103e-04 2.276170334580628063e-03
1.901999999999999882e-04 1.781880600978280049e-01 3.479577791899843742e-04 2.292561569242367037e-03
1.977000000000000079e-04 1.852284385240466902e-01 3.641242634600037713e-04 2.299943765467868384e-03
2.054000000000000053e-04 1.924572004474696396e-01 3.808304060475003897e-04 2.322187632288155723e-03
2.079000000000000119e-04 1.948043378760714872e-01 3.864137987380476553e-04 2.435429768083530178e-03
2.081999999999999921e-04 1.950859988578999005e-01 3.870314100985603909e-04 1.950065624557156818e-03
2.090999999999999868e-04 1.959309855029948977e-01 3.881261957135444685e-04 6.411875526909013856e-04
2.159999999999999919e-04 2.024093317906446865e-01 3.940874488768042125e-04 1.199166870571831411e-03
2.231000000000000019e-04 2.090756740932291913e-01 4.013938420547467825e-04 9.928616047829054436e-04
2.311000000000000066e-04 2.165873044433437034e-01 4.085241694843774404e-04 9.056166966301716637e-04
2.401000000000000085e-04 2.250381721984245909e-01 4.159700687886608468e-04 8.565463878902855599e-04
2.500000000000000052e-04 2.343344406330727658e-01 4.237602369176299592e-04 8.194318812157330018e-04
2.642999999999999733e-04 2.477629128650125634e-01 4.345596643180389446e-04 7.890063723638815647e-04
3.052999999999999941e-04 2.862671839140227270e-01 4.644058706720978241e-04 7.612775562167708662e-04
3.533000000000000224e-04 3.313503829113090826e-01 4.987577676308450197e-04 7.626578558207241024e-04
4.075999999999999871e-04 3.823564017794535141e-01 5.381334366106255759e-04 7.813048116943254948e-04
4.679999999999999915e-04 4.390986251953180042e-01 5.832692638200615834e-04 8.096035963157804938e-04
5.341000000000000261e-04 5.012024644415256081e-01 6.346556894078133086e-04 8.452514814113673558e-04
6.059000000000000366e-04 5.686690698184251325e-01 6.930641302632923034e-04 8.862253587289389486e-04
7.661000000000000275e-04 7.192254882508629654e-01 8.328184776562496576e-04 9.702780530519144065e-04
1.262000000000000101e-03 1.185459127778160093e+00 1.338484980802662205e-03 1.198863597978450275e-03
1.894999999999999983e-03 1.780909071169781921e+00 2.123481960401060308e-03 1.437771491635827115e-03
2.673000000000000029e-03 2.513147344746868850e+00 3.261860252001994032e-03 1.671524566936786766e-03
3.605999999999999830e-03 3.391736073717691369e+00 4.828136641022434151e-03 1.893900408978071038e-03
4.709999999999999777e-03 4.431905410739045870e+00 6.903512974832482635e-03 2.096551352830673849e-03
7.496000000000000059e-03 7.058993649504918366e+00 1.289742191321638018e-02 2.466596387205546859e-03
1.119999999999999989e-02 1.055540362104863661e+01 2.212077014004794340e-02 2.809304433764861584e-03
1.600000000000000033e-02 1.509117352747679952e+01 3.559566804390756900e-02 3.132325055719984222e-03
2.206999999999999934e-02 2.083310616724802244e+01 5.457322122755020599e-02 3.477840948757840792e-03
2.947999999999999926e-02 2.785007348564149154e+01 8.049103664263126956e-02 3.909302116317729670e-03
4.268000000000000266e-02 4.036707211535221518e+01 1.353887601042819133e-01 4.862066536253286525e-03
6.219999999999999835e-02 5.891246509830522626e+01 2.419691225623893105e-01 6.630786177272363080e-03
7.316999999999999893e-02 6.935151695866235855e+01 3.161896974764099033e-01 7.588671314871411888e-03
7.595999999999999974e-02 7.200836722020332559e+01 3.371250777904805096e-01 8.170805199905812125e-03
7.685877551020407761e-02 7.286441679570239671e+01 3.442053735503303180e-01 8.370975639543623906e-03
7.775755102040816935e-02 7.372055017166991320e+01 3.514578321699283192e-01 8.571372959679251710e-03
7.865632653061224722e-02 7.457676837061471531e+01 3.588826460345017622e-01 8.771893669470147079e-03
7.955510204081632508e-02 7.543307239337329406e+01 3.664799193767713237e-01 8.972434278073761552e-03
8.045387755102040295e-02 7.628946321884824044e+01 3.742496682223132032e-01 9.172891294647553609e-03
8.135265306122449469e-02 7.714594180375775068e+01 3.821918203337335007e-01 9.373161228348978261e-03
8.225142857142857256e-02 7.800250908239492276e+01 3.903062151537068925e-01 9.573140588335481843e-03
8.315020408163265042e-02 7.885916596639800957e+01 3.985926037469347261e-01 9.772725883764528040e-03
8.404897959183672829e-02 7.971591334452922695e+01 4.070506487410746610e-01 9.971813623793563189e-03
8.494775510204082003e-02 8.057275208246248610e+01 4.156799242666973648e-01 1.017030031758004577e-02
8.584653061224489790e-02 8.142968302257986579e+01 4.244799158963241670e-01 1.036808247428142385e-02
8.674530612244897576e-02 8.228670698377520409e+01 4.334500205826020691e-01 1.056505660305516285e-02
8.764408163265305363e-02 8.314382476126613142e+01 4.425895465956690700e-01 1.076111921305870564e-02
8.854285714285714537e-02 8.400103712641251263e+01 4.518977134597675915e-01 1.095616681344951590e-02
8.944163265306122323e-02 8.485834482654162514e+01 4.613736518891598526e-01 1.115009591338503477e-02
9.034040816326530110e-02 8.571574858478007286e+01 4.710164037234038648e-01 1.134280302202273112e-02
9.123918367346939284e-02 8.657324909989171147e+01 4.808249218620437304e-01 1.153418464852004784e-02
9.213795918367347071e-02 8.743084704612071789e+01 4.907980701987717520e-01 1.172413730203444165e-02
9.303673469387754857e-02 8.828854307304091265e+01 5.009346235551208615e-01 1.191255749172336932e-02
9.393551020408162644e-02 8.914633780540987118e+01 5.112332676137417709e-01 1.209934172674428238e-02
9.483428571428570431e-02 9.000423184302800905e+01 5.216925988513239076e-01 1.228438651625463583e-02
9.573306122448979605e-02 9.086222576060239930e+01 5.323111244712172008e-01 1.246758836941188817e-02
9.663183673469387391e-02 9.172032010761509468e+01 5.430872623358118378e-01 1.264884379537348225e-02
9.753061224489795178e-02 9.257851540819554259e+01 5.540193408987353907e-01 1.282804930329688176e-02
9.842938775510204352e-02 9.343681216099747644e+01 5.651055991369237086e-01 1.300510140233953824e-02
9.932816326530612139e-02 9.429521083907926027e+01 5.763441864826241989e-01 1.317989660165890496e-02
1.002269387755101993e-01 9.515371188978831185e+01 5.877331627553917803e-01 1.335233141041243521e-02
1.011257142857142910e-01 9.601231573464855273e+01 5.992704980941334636e-01 1.352230233775758919e-02
1.020244897959183689e-01 9.687102276925183730e+01 6.109540728892611794e-01 1.368970589285180978e-02
1.029232653061224467e-01 9.772983336315240877e+01 6.227816777150142480e-01 1.385443858485255544e-02
1.038220408163265246e-01 9.858874785976414046e+01 6.347510132620064471e-01 1.401639692291728814e-02
1.047208163265306025e-01 9.944776657626111671e+01 6.468596902700604057e-01 1.417547741620345247e-02
1.056195918367346942e-01 1.003068898034811554e+02 6.591052294613867213e-01 1.433157657386850865e-02
1.065183673469387721e-01 1.011661178058313055e+02 6.714850614741681989e-01 1.448459090506990302e-02
1.074171428571428499e-01 1.020254508211973246e+02 6.839965267966097162e-01 1.463441691896509578e-02
1.083159183673469417e-01 1.028848890608538085e+02 6.966368757015115598e-01 1.478095112471154021e-02
1.092146938775510195e-01 1.037444327093787138e+02 7.094032681814270713e-01 1.492409003146669133e-02
1.101134693877550974e-01 1.046040819245684901e+02 7.222927738844667767e-01 1.506373014838799894e-02
1.110122448979591891e-01 1.054638368373568653e+02 7.353023720508061745e-01 1.519976798463291978e-02
1.119110204081632531e-01 1.063236975517343410e+02 7.484289514499574691e-01 1.533210004935890713e-02
1.128097959183673449e-01 1.071836641446710985e+02 7.616693103188716396e-01 1.546062285172341774e-02
1.137085714285714227e-01 1.080437366660410135e+02 7.750201563009205818e-01 1.558523290088390141e-02
1.146073469387755006e-01 1.089039151385480153e+02 7.884781063858323780e-01 1.570582670599781488e-02
1.155061224489795924e-01 1.097641995576538676e+02 8.020396868506309840e-01 1.582230077622261144e-02
1.164048979591836702e-01 1.106245898915082932e+02 8.157013332016453955e-01 1.593455162071574782e-02
1.173036734693877481e-01 1.114850860808804924e+02 8.294593901176506856e-01 1.604247574863467210e-02
1.182024489795918398e-01 1.123456880390921100e+02 8.433101113941980920e-01 1.614596966913684623e-02
1.191012244897959177e-01 1.132063956519525334e+02 8.572496598891981012e-01 1.624492989137971480e-02
1.199999999999999956e-01 1.140672087776947450e+02 8.712741074698187038e-01 1.633925292452073977e-02
1.238826987668269347e-01 1.177871219441887547e+02 9.327591416184097817e-01 1.671793353586089118e-02
1.277653975336538739e-01 1.215089857703452765e+02 9.957475778507646202e-01 1.712979449248090008e-02
1.316480963004807991e-01 1.252327885989144534e+02 1.060368455263241971e+00 1.757705978791418433e-02
1.355307950673077244e-01 1.289585233892148892e+02 1.126759121410483067e+00 1.806182226628892315e-02
1.394134938341346497e-01 1.326861875515120630e+02 1.195064754983780286e+00 1.858603886341567493e-02
1.432961926009616027e-01 1.364157827863120929e+02 1.265437870513329122e+00 1.915152573647690634e-02
1.471788913677885280e-01 1.401473149274104344e+02 1.338037804780393358e+00 1.975995332621082248e-02
1.510615901346154533e-01 1.438807937877165841e+02 1.413030184749454632e+00 2.041284139034374792e-02
1.549442889014424063e-01 1.476162330070195594e+02 1.490586376937968138e+00 2.111155404311543596e-02
1.588269876682693316e-01 1.513536499009886995e+02 1.570882918236672143e+00 2.185729483284731128e-02
1.627096864350962568e-01 1.550930653108034960e+02 1.654100928280020977e+00 2.265110188746120162e-02
1.665923852019232099e-01 1.588345034529024247e+02 1.740425503547285757e+00 2.349384315654117622e-02
1.704750839687501351e-01 1.625779917684094187e+02 1.830045093452931759e+00 2.438621177784745103e-02
1.743577827355770604e-01 1.663235607718739004e+02 1.923150858762409099e+00 2.532872159606822104e-02
1.782404815024040134e-01 1.700712438990076691e+02 2.019936012748665188e+00 2.632170286198014242e-02
1.821231802692309387e-01 1.738210773531581310e+02 2.120595145587635955e+00 2.736529814104232336e-02
1.860058790360578640e-01 1.775730999503033161e+02 2.225323532579609687e+00 2.845945846174933319e-02
1.898885778028848170e-01 1.813273529623898810e+02 2.334316426879585293e+00 2.960393973579883778e-02
1.937712765697117423e-01 1.850838799588765369e+02 2.447768337525541682e+00 3.079829948428400993e-02
1.976539753365386676e-01 1.888427266463757519e+02 2.565872293670720339e+00 3.204189390670044574e-02
2.015366741033656206e-01 1.926039407063210831e+02 2.688819096056564106e+00 3.333387533256822882e-02
2.054193728701925459e-01 1.963675716306147763e+02 2.816796556908884863e+00 3.467319009892244619e-02
2.093020716370194712e-01 2.001336705552384103e+02 2.949988729603159054e+00 3.605857690083606043e-02
2.131847704038464242e-01 2.039022900918447476e+02 3.088575129627708638e+00 3.748856566652343514e-02
2.170674691706733495e-01 2.076734841573644985e+02 3.232729948578197732e+00 3.896147701344756381e-02
2.209501679375002747e-01 2.114473078017054490e+02 3.382621263145593637e+00 4.047542234724156585e-02
2.248328667043272278e-01 2.152238170336364931e+02 3.538410241314901228e+00 4.202830467116373814e-02
2.287155654711541530e-01 2.190030686449899520e+02 3.700250348276074241e+00 4.361782018025510410e-02
2.325982642379810783e-01 2.227851200333421673e+02 3.868286554863975102e+00 4.524146072135622892e-02
2.364809630048080313e-01 2.265700290233671979e+02 4.042654551693562581e+00 4.689651720766931098e-02
2.403636617716349289e-01 2.303578536870954565e+02 4.223479972542200755e+00 4.858008408459777577e-02
2.442463605384618819e-01 2.341486521633457869e+02 4.410877630955350348e+00 5.028906495213126410e-02
2.481290593052888072e-01 2.379424824766410325e+02 4.604950774517095446e+00 5.202017945800698623e-02
2.520117580721157324e-01 2.417394023559636480e+02 4.805790361735029492e+00 5.376997158518613540e-02
2.558944568389426855e-01 2.455394690537515316e+02 5.013474367041152568e+00 5.553481946671912778e-02
2.597771556057696385e-01 2.493427391655883696e+02 5.228067120007776403e+00 5.731094687065652754e-02
2.636598543725965360e-01 2.531492684510994309e+02 5.449618685519864947e+00 5.909443650707679740e-02
2.675425531394234890e-01 2.569591116566176652e+02 5.678164292331993046e+00 6.088124531833774555e-02
2.714252519062504421e-01 2.607723223402544477e+02 5.913723818166731760e+00 6.266722192176635287e-02
2.753079506730773396e-01 2.645889527000733779e+02 6.156301340277416045e+00 6.444812638065272603e-02
2.791906494399042926e-01 2.684090534061403446e+02 6.405884761199394539e+00 6.621965248646753677e-02
2.830733482067312456e-01 2.722326734372971373e+02 6.662445520230825480e+00 6.797745273185271109e-02
2.869560469735581432e-01 2.760598599235877941e+02 6.925938402020554996e+00 6.971716616324345750e-02
2.908387457403850962e-01 2.798906579953516029e+02 7.196301454469104186e+00 7.143444928479726619e-02
2.947214445072120492e-01 2.837251106400838125e+02 7.473456028954369224e+00 7.312501018724464064e-02
2.986041432740389467e-01 2.875632585682506601e+02 7.757306956648590379e+00 7.478464604443588182e-02
3.024868420408658998e-01 2.914051400893429218e+02 8.047742875363788073e+00 7.640928410584628405e-02
3.063695408076928528e-01 2.952507909995387081e+02 8.344636721923954781e+00 7.799502627039493763e-02
3.102522395745197503e-01 2.991002444824325153e+02 8.647846405450287932e+00 7.953819728076845508e-02
3.855532142770805581e-01 3.752963323008541465e+02 2.393600962484299544e+01 3.159490130505500094e-01
4.608541889796413660e-01 4.561131850938961065e+02 5.952238634388361049e+01 5.523598288203316331e-01
5.361551636822021738e-01 5.443952761971036125e+02 1.195679608422854159e+02 7.887706445901131458e-01
6.114561383847629816e-01 6.428241180385923599e+02 2.005543083077029394e+02 8.513095468360367679e-01
6.867571130873237895e-01 7.519361356017362823e+02 2.817460423107401084e+02 6.525879634486932979e-01
7.620580877898847083e-01 8.690080418546465353e+02 3.459728813183903071e+02 4.538663800613496613e-01
8.373590624924455161e-01 9.913804996688593292e+02 3.904085175310937643e+02 2.766955250049025206e-01
9.126600371950063240e-01 1.117020127161584242e+03 4.209974386752929831e+02 2.111604067384098560e-01
9.879610118975671318e-01 1.244862466957737752e+03 4.437666398237308840e+02 1.456252884719171914e-01
1.063261986600128051e+00 1.374127074767716749e+03 4.583348851717851176e+02 8.009017020542441578e-02
1.138562961302688858e+00 1.504282783161785574e+03 4.693526814646157845e+02 8.918857942520647120e-02
1.213863936005249666e+00 1.635307412002004412e+03 4.851399400727025295e+02 1.515335007649316335e-01
1.289164910707810474e+00 1.767559089269569085e+03 5.093286327854801812e+02 2.138784221046567957e-01
1.364465885410371282e+00 1.901464369849420564e+03 5.421763634639668226e+02 2.762233434443819857e-01
1.439766860112932090e+00 2.037418703225350328e+03 5.840111118658863916e+02 3.385682647841071757e-01
1.515067834815492898e+00 2.175726037608561001e+03 6.309516625414726150e+02 3.402426158275846935e-01
1.590368809518053705e+00 2.316293645233192365e+03 6.731099691052639855e+02 2.603752741616918720e-01
1.665669784220614513e+00 2.458595992191952064e+03 7.044427993571065372e+02 1.805079324957991060e-01
1.740970758923175321e+00 2.602168796528227631e+03 7.304858869792125233e+02 1.822798447895329355e-01
1.816271733625736129e+00 2.746897638511527020e+03 7.581205535857293398e+02 1.995295752847821569e-01
1.891572708328296937e+00 2.892828161987881685e+03 7.885022372929033736e+02 2.167793057800313505e-01
1.966873683030857745e+00 3.040022995040515525e+03 8.216865095342625409e+02 2.340290362752805997e-01
2.042174657733418552e+00 3.188542144481721152e+03 8.577315483537273622e+02 2.512787667705297934e-01
2.117475632435979804e+00 3.338443380835374228e+03 8.966980573397413536e+02 2.685284972657790981e-01
