# density  energy_density  pressure   sound_speed_squared  [All in nuclear units]
2.720000000000000022e-14 2.529924618736292620e-11 1.061056609100270887e-19 3.766610435412189122e-08
1.269999999999999890e-13 1.181251617980081254e-10 4.870113551826584858e-18 6.497781477172163475e-08
6.929999999999999754e-13 6.445728594625782745e-10 1.018299070687946017e-16 3.033770597342807186e-07
6.295000000000000137e-12 5.855111460395753757e-09 5.487150723824490656e-15 1.763710043904196507e-06
1.581000000000000150e-11 1.470523320212576141e-08 2.904239460150760759e-14 3.559434472327477622e-06
3.971999999999999958e-11 3.694456170323160790e-08 1.439340266754906811e-13 6.772854871245677111e-06
9.975999999999999982e-11 9.278976412613005154e-08 6.812143616221268841e-13 1.246890511177539320e-05
2.505999999999999928e-10 2.330928829758143313e-07 3.107749196951638608e-12 2.212095130576091967e-05
6.294000000000000186e-10 5.854398883216247602e-07 1.363250409771533549e-11 3.761981047239428883e-05
1.581000000000000021e-09 1.470619631082054101e-06 5.726014178088476303e-11 6.095350986710739404e-05
3.971999999999999932e-09 3.694861084648016046e-06 2.210019573374265380e-10 8.628023653304385055e-05
5.000000000000000105e-09 4.651201787816927976e-06 3.071485916280120014e-10 9.387863480799757518e-05
9.975999999999999465e-09 9.280587964640925786e-06 8.385361004129998845e-10 1.356922228656245837e-04
1.989999999999999952e-08 1.851419242998081003e-05 2.287763168863418088e-09 1.782101978513718314e-04
3.972999999999999908e-08 3.696699295748789187e-05 6.061583099087538954e-09 2.308134738384234820e-04
7.925999999999999637e-08 7.375765469301719828e-05 1.575347858094044765e-08 2.960532096713864875e-04
1.580999999999999930e-07 1.471491184379128891e-04 3.910429618672550719e-08 3.402859755131850544e-04
1.991000000000000027e-07 1.853209783927820692e-04 5.252045687899177454e-08 3.626488188833278743e-04
3.155999999999999938e-07 2.938002528823880299e-04 9.730770378831954314e-08 4.630767356912104081e-04
5.000999999999999849e-07 4.656344063839075714e-04 1.837494945860225819e-07 5.430301232045120323e-04
6.295999999999999732e-07 5.862651417037388971e-04 2.503103884558263872e-07 5.605192962670089638e-04
9.666999999999999941e-07 9.003386739730535665e-04 4.324450868778576936e-07 5.993081670211623108e-04
1.531999999999999901e-06 1.427170885631398036e-03 7.780217275717420968e-07 7.125938556504039095e-04
2.506999999999999883e-06 2.336134972129507662e-03 1.471005394641589826e-06 8.121876172121876309e-04
3.974000000000000407e-06 3.704315759716615697e-03 2.695705763844323844e-06 9.780674166779417152e-04
4.830000000000000343e-06 4.502887798316278223e-03 3.503988717694660908e-06 1.046253037768318664e-03
6.080999999999999885e-06 5.670217999231269741e-03 4.731126407333307547e-06 1.056224360839501646e-03
7.930000000000000308e-06 7.396012414119570652e-03 6.599662989063778187e-06 1.109203753630785610e-03
9.982000000000000313e-06 9.311815711689977113e-03 8.879881089227186733e-06 1.271216815433141075e-03
1.256999999999999993e-05 1.172874412604260098e-02 1.207676739913533738e-05 1.374195438212825332e-03
1.521999999999999997e-05 1.420427250933824909e-02 1.547541302213394990e-05 1.371610497379100249e-03
1.991000000000000080e-05 1.858690797761085312e-02 2.160710455847765458e-05 1.426578142835871997e-03
2.506999999999999883e-05 2.341050104039446925e-02 2.908031724375689851e-05 1.672007475975408053e-03
2.790999999999999875e-05 2.606604784714952258e-02 3.357009132255487721e-05 1.709425557744154774e-03
3.806999999999999973e-05 3.556967988784798945e-02 4.986781576435106434e-05 1.720407281314112165e-03
5.063000000000000145e-05 4.732434580343149871e-02 7.073400252905581275e-05 1.829889149838781265e-03
6.592000000000000583e-05 6.164112392498975052e-02 9.765037643900635188e-05 1.930242980462695823e-03
8.433000000000000066e-05 7.888776783401378612e-02 1.317235490470395893e-04 2.021055815200022837e-03
1.062000000000000064e-04 9.938561165478684845e-02 1.740088341640037047e-04 2.104789529260958983e-03
1.321000000000000126e-04 1.236720406455826121e-01 2.260189757651373944e-04 2.178291718403657477e-03
1.623999999999999901e-04 1.520974545104751274e-01 2.888169908545388338e-04 2.240170365918073281e-03
1.689999999999999879e-04 1.582907717069566844e-01 3.027354772999506964e-04 2.254509350360745651e-03
1.758999999999999930e-04 1.647661861691531171e-01 3.173785841705756782e-04 2.268169273277113179e-03
1.830000000000000029e-04 1.714298948183871907e-01 3.325196584577469103e-04 2.276170334580628063e-03
1.901999999999999882e-04 1.781880600978280049e-01 3.479577791899843742e-04 2.292561569242367037e-03
1.977000000000000079e-04 1.852284385240466902e-01 3.641242634600037713e-04 2.299943765467868384e-03
2.054000000000000053e-04 1.924572004474696396e-01 3.808304060475003897e-04 2.322187632288155723e-03
2.079000000000000119e-04 1.948043378760714872e-01 3.864137987380476553e-04 2.435429768083530178e-03
2.081999999999999921e-04 1.950859988578999005e-01 3.870314100985603909e-04 1.950065624557156818e-03
2.090999999999999868e-04 1.959309855029948977e-01 3.881261957135444685e-04 6.411875526909013856e-04
2.159999999999999919e-04 2.024093317906446865e-01 3.940874488768042125e-04 1.199166870571831411e-03
2.231000000000000019e-04 2.090756740932291913e-01 4.013938420547467825e-04 9.928616047829054436e-04
2.311000000000000066e-04 2.165873044433437034e-01 4.085241694843774404e-04 9.056166966301716637e-04
2.401000000000000085e-04 2.250381721984245909e-01 4.159700687886608468e-04 8.565463878902855599e-04
2.500000000000000052e-04 2.343344406330727658e-01 4.237602369176299592e-04 8.194318812157330018e-04
2.642999999999999733e-04 2.477629128650125634e-01 4.345596643180389446e-04 7.890063723638815647e-04
3.052999999999999941e-04 2.862671839140227270e-01 4.644058706720978241e-04 7.612775562167708662e-04
3.533000000000000224e-04 3.313503829113090826e-01 4.987577676308450197e-04 7.626578558207241024e-04
4.075999999999999871e-04 3.823564017794535141e-01 5.381334366106255759e-04 7.813048116943254948e-04
4.679999999999999915e-04 4.390986251953180042e-01 5.832692638200615834e-04 8.096035963157804938e-04
5.341000000000000261e-04 5.012024644415256081e-01 6.346556894078133086e-04 8.452514814113673558e-04
6.059000000000000366e-04 5.686690698184251325e-01 6.930641302632923034e-04 8.862253587289389486e-04
7.661000000000000275e-04 7.192254882508629654e-01 8.328184776562496576e-04 9.702780530519144065e-04
1.262000000000000101e-03 1.185459127778160093e+00 1.338484980802662205e-03 1.198863597978450275e-03
1.894999999999999983e-03 1.780909071169781921e+00 2.123481960401060308e-03 1.437771491635827115e-03
2.673000000000000029e-03 2.513147344746868850e+00 3.261860252001994032e-03 1.671524566936786766e-03
3.605999999999999830e-03 3.391736073717691369e+00 4.828136641022434151e-03 1.893900408978071038e-03
4.709999999999999777e-03 4.431905410739045870e+00 6.903512974832482635e-03 2.096551352830673849e-03
7.496000000000000059e-03 7.058993649504918366e+00 1.289742191321638018e-02 2.466596387205546859e-03
1.119999999999999989e-02 1.055540362104863661e+01 2.212077014004794340e-02 2.809304433764861584e-03
1.600000000000000033e-02 1.509117352747679952e+01 3.559566804390756900e-02 3.132325055719984222e-03
2.206999999999999934e-02 2.083310616724802244e+01 5.457322122755020599e-02 3.477840948757840792e-03
2.947999999999999926e-02 2.785007348564149154e+01 8.049103664263126956e-02 3.909302116317729670e-03
4.268000000000000266e-02 4.036707211535221518e+01 1.353887601042819133e-01 4.862066536253286525e-03
6.219999999999999835e-02 5.891246509830522626e+01 2.419691225623893105e-01 6.630786177272363080e-03
7.316999999999999893e-02 6.935151695866235855e+01 3.161896974764099033e-01 7.588671314871411888e-03
7.595999999999999974e-02 7.200836722020332559e+01 3.371250777904805096e-01 8.170805199905810390e-03
7.685877551020407761e-02 7.286441681578006069e+01 3.442088095292449301e-01 8.379002377438949864e-03
7.775755102040816935e-02 7.372055030536024844e+01 3.514738861134145687e-01 8.592819922890208503e-03
7.865632653061224722e-02 7.457676884299786479e+01 3.589251024637102883e-01 8.812111180399118462e-03
7.955510204081632508e-02 7.543307361046403514e+01 3.665671303310217288e-01 9.036729494105225774e-03
8.045387755102040295e-02 7.628946581491521783e+01 3.744045182874142785e-01 9.266528208148067797e-03
8.135265306122449469e-02 7.714594668666664745e+01 3.824416917151302608e-01 9.501360666667181890e-03
8.225142857142857256e-02 7.800251747706319350e+01 3.906829527934197466e-01 9.741080213802098473e-03
8.315020408163265042e-02 7.885917945644358440e+01 3.991324804830579942e-01 9.985540193692365313e-03
8.404897959183672829e-02 7.971593391219266778e+01 4.077943305084159586e-01 1.023459395047751457e-02
8.494775510204082003e-02 8.057278214687593731e+01 4.166724353369699041e-01 1.048809482829709573e-02
8.584653061224489790e-02 8.142972547645378256e+01 4.257706041561453159e-01 1.074589617129062709e-02
8.674530612244897576e-02 8.228676522856983411e+01 4.350925228474065154e-01 1.100785132359765814e-02
8.764408163265305363e-02 8.314390274090972355e+01 4.446417539575103217e-01 1.127381362935773144e-02
8.854285714285714537e-02 8.400113935962724554e+01 4.544217366668573121e-01 1.154363643271038263e-02
8.944163265306122323e-02 8.485847643783388605e+01 4.644357867548805086e-01 1.181717307779514038e-02
9.034040816326530110e-02 8.571591533414900255e+01 4.746870965624251926e-01 1.209427690875155247e-02
9.123918367346939284e-02 8.657345741130674810e+01 4.851787349510763292e-01 1.237480126971915451e-02
9.213795918367347071e-02 8.743110403481807680e+01 4.959136472594037892e-01 1.265859950483748213e-02
9.303673469387754857e-02 8.828885657168413559e+01 5.068946552561016672e-01 1.294552495824607442e-02
9.393551020408162644e-02 8.914671638915906726e+01 5.181244570900025437e-01 1.323543097408447396e-02
9.483428571428570431e-02 9.000468485355970927e+01 5.296056272369584761e-01 1.352817089649221115e-02
9.573306122448979605e-02 9.086276332911957354e+01 5.413406164435843326e-01 1.382359806960883376e-02
9.663183673469387391e-02 9.172095317688589944e+01 5.533317516678650794e-01 1.412156583757387049e-02
9.753061224489795178e-02 9.257925575365666759e+01 5.655812360166374564e-01 1.442192754452686389e-02
9.842938775510204352e-02 9.343767241095632414e+01 5.780911486799558130e-01 1.472453653460735479e-02
9.932816326530612139e-02 9.429620449404856686e+01 5.908634448623621971e-01 1.502924615195487187e-02
1.002269387755101993e-01 9.515485334098397630e+01 6.038999557110860117e-01 1.533590974070896291e-02
1.011257142857142910e-01 9.601362028168114193e+01 6.172023882411959983e-01 1.564438064500916700e-02
1.020244897959183689e-01 9.687250663703989062e+01 6.307723252577399631e-01 1.595451220899500935e-02
1.029232653061224467e-01 9.773151371808511101e+01 6.446112252749082172e-01 1.626615777680603600e-02
1.038220408163265246e-01 9.859064282513948285e+01 6.587204224322571466e-01 1.657917069258178777e-02
1.047208163265306025e-01 9.944989524702441486e+01 6.731011264080395406e-01 1.689340430046179856e-02
1.056195918367346942e-01 1.003092722602878126e+02 6.877544223296864212e-01 1.720871194458561265e-02
1.065183673469387721e-01 1.011687751284566019e+02 7.026812706814896670e-01 1.752494696909276395e-02
1.074171428571428499e-01 1.020284051013146041e+02 7.178825072095417203e-01 1.784196271812278287e-02
1.083159183673469417e-01 1.028881634142031203e+02 7.333588428239827817e-01 1.815961253581522064e-02
1.092146938775510195e-01 1.037480512873443814e+02 7.491108634986178849e-01 1.847774976630960769e-02
1.101134693877550974e-01 1.046080699251859443e+02 7.651390301679651396e-01 1.879622775374547791e-02
1.110122448979591891e-01 1.054682205157661343e+02 7.814436786217962005e-01 1.911489984226238947e-02
1.119110204081632531e-01 1.063285042300988152e+02 7.980250193972355799e-01 1.943361937599985198e-02
1.128097959183673449e-01 1.071889222215772861e+02 8.148831376684921857e-01 1.975223969909742708e-02
1.137085714285714227e-01 1.080494756253958712e+02 8.320179931342823743e-01 2.007061415569463825e-02
1.146073469387755006e-01 1.089101655579897994e+02 8.494294199030307801e-01 2.038859608993102979e-02
1.155061224489795924e-01 1.097709931164905868e+02 8.671171263759123171e-01 2.070603884594614252e-02
1.164048979591836702e-01 1.106319593781981041e+02 8.850806951278167301e-01 2.102279576787950688e-02
1.173036734693877481e-01 1.114930654000683177e+02 9.033195827863149674e-01 2.133872019987066715e-02
1.182024489795918398e-01 1.123543122182149574e+02 9.218331199087032024e-01 2.165366548605916416e-02
1.191012244897959177e-01 1.132157008474262341e+02 9.406205108572085472e-01 2.196748497058452140e-02
1.199999999999999956e-01 1.140772322806944317e+02 9.596808336724415023e-01 2.228003199758629357e-02
1.238224538774810868e-01 1.177429178953809270e+02 1.043798092332634209e+00 2.361398389512620391e-02
1.276449077549621780e-01 1.214112782616891622e+02 1.133001098234922344e+00 2.501929527637347661e-02
1.314673616324432692e-01 1.250823896459378801e+02 1.227563302747086693e+00 2.649716052668029537e-02
1.352898155099243604e-01 1.287563319080147153e+02 1.327763498208974768e+00 2.804873644844509128e-02
1.391122693874054517e-01 1.324331883466753368e+02 1.433885753724693846e+00 2.967514716665870314e-02
1.429347232648865429e-01 1.361130455603494909e+02 1.546219369840811320e+00 3.137748825509892314e-02
1.467571771423676341e-01 1.397959933218469359e+02 1.665058849452569545e+00 3.315683016956954415e-02
1.505796310198487253e-01 1.434821244655465762e+02 1.790703882574796513e+00 3.501422106519527094e-02
1.544020848973298166e-01 1.471715347858066707e+02 1.923459342877130274e+00 3.695068906668031589e-02
1.582245387748109078e-01 1.508643229454771131e+02 2.063635294118542518e+00 3.896724405340341174e-02
1.620469926522919990e-01 1.545605903935106369e+02 2.211547004827468577e+00 4.106487901508809601e-02
1.658694465297730902e-01 1.582604412907768108e+02 2.367514969764108024e+00 4.324457102841756939e-02
1.696919004072541814e-01 1.619639824432757678e+02 2.531864936873196914e+00 4.550728190023663189e-02
1.735143542847352449e-01 1.656713232420277961e+02 2.704927938590947711e+00 4.785395851881126678e-02
1.773368081622163361e-01 1.693825756089893275e+02 2.887040326510769361e+00 5.028553295091110070e-02
1.811592620396974274e-01 1.730978539484071632e+02 3.078543808540406435e+00 5.280292231917964318e-02
1.849817159171785186e-01 1.768172751030827783e+02 3.279785487799728116e+00 5.540702849130081653e-02
1.888041697946596098e-01 1.805409583150692185e+02 3.491117902614640833e+00 5.809873760981147661e-02
1.926266236721407010e-01 1.842690251903661078e+02 3.712899067059648228e+00 6.087891948900654021e-02
1.964490775496217922e-01 1.880015996672252925e+02 3.945492511590270368e+00 6.374842690319887373e-02
2.002715314271028835e-01 1.917388079877107145e+02 4.189267323387680264e+00 6.670809478860730002e-02
2.040939853045839747e-01 1.954807786721970331e+02 4.444598186112191485e+00 6.975873937931564850e-02
2.079164391820650659e-01 1.992276424965142212e+02 4.711865418830247343e+00 7.290115729606455597e-02
2.117388930595461571e-01 2.029795324714829121e+02 4.991455013941856755e+00 7.613612460507759860e-02
2.155613469370272484e-01 2.067365838246004444e+02 5.283758673992414501e+00 7.946439586267271815e-02
2.193838008145083396e-01 2.104989339836717193e+02 5.589173847305003662e+00 8.288670316005550265e-02
2.232062546919894030e-01 2.142667225621892726e+02 5.908103762416903493e+00 8.640375518141601985e-02
2.270287085694704943e-01 2.180400913462980554e+02 6.240957461347504065e+00 9.001623628725420601e-02
2.308511624469515855e-01 2.218191842831875533e+02 6.588149831764313014e+00 9.372480563372183326e-02
2.346736163244326767e-01 2.256041474707786278e+02 6.950101638149703831e+00 9.753009633769343933e-02
2.384960702019137679e-01 2.293951291485833792e+02 7.327239552103439024e+00 1.014327146962502590e-01
2.423185240793948592e-01 2.331922796896314765e+02 7.719996181945236735e+00 1.054332394682830909e-01
2.461409779568759504e-01 2.369957515933692207e+02 8.128810101807808053e+00 1.095322212249794230e-01
2.499634318343570416e-01 2.408056994794504817e+02 8.554125880434030549e+00 1.137301817750590721e-01
2.537858857118381328e-01 2.446222800823458101e+02 8.996394109912419168e+00 1.180276136697572115e-01
2.576083395893192241e-01 2.484456522467135358e+02 9.456071434602936421e+00 1.224249797917178473e-01
2.614307934668003153e-01 2.522759769234751559e+02 9.933620580520498677e+00 1.269227130311559870e-01
2.652532473442814065e-01 2.561134171665602253e+02 1.042951038545652409e+01 1.315212160518717255e-01
2.690757012217624977e-01 2.599581381302749037e+02 1.094421583012946364e+01 1.362208611489482690e-01
2.728981550992435889e-01 2.638103070672769945e+02 1.147821807066368827e+01 1.410219901992408043e-01
2.767206089767246802e-01 2.676700933271279723e+02 1.203200447270233830e+01 1.459249147050674100e-01
2.805430628542057714e-01 2.715376683554109718e+02 1.260606864746394074e+01 1.509299159308326865e-01
2.843655167316868626e-01 2.754132056934026878e+02 1.320091049005478112e+01 1.560372451316675013e-01
2.881879706091679538e-01 2.792968809782963149e+02 1.381703622034920365e+01 1.612471238725387557e-01
2.920104244866490451e-01 2.831888719439728561e+02 1.445495842674836418e+01 1.665597444356768930e-01
2.958328783641301363e-01 2.870893584223248922e+02 1.511519611312444056e+01 1.719752703135902228e-01
2.996553322416112275e-01 2.909985223451437264e+02 1.579827474925195752e+01 1.774938367843772735e-01
3.034777861190923187e-01 2.949165477465729168e+02 1.650472632502083314e+01 1.831155515655109312e-01
3.073002399965734099e-01 2.988436207661517301e+02 1.723508940871693795e+01 1.888404955417664621e-01
3.826614595884800796e-01 3.790872132343587282e+02 4.662548581667905978e+01 5.265166528689195768e-01
4.580226791803867492e-01 4.671992537059143160e+02 9.344310460209887026e+01 5.365252765506638433e-01
5.333838987722934188e-01 5.633371184769623596e+02 1.422231615373535760e+02 4.821840668968063182e-01
6.087451183642000885e-01 6.662520794426840212e+02 1.889041821764865574e+02 4.278428572429487931e-01
6.841063379561067581e-01 7.747628021008446240e+02 2.322683991854331680e+02 3.735016475890913235e-01
7.594675575480134277e-01 8.878286336660230518e+02 2.713409743324525607e+02 3.191604379352338539e-01
8.348287771399200974e-01 1.004899682194417210e+03 3.176016321845903008e+02 4.674862445965399793e-01
9.101899967318267670e-01 1.126996045680714133e+03 3.861739594301394050e+02 6.491868083262672950e-01
9.855512163237334367e-01 1.255741815642690199e+03 4.798703062656729799e+02 7.991420911966455876e-01
1.060912435915640106e+00 1.392473894783650394e+03 5.860590622159318173e+02 7.564832998478462356e-01
1.136273655507546776e+00 1.536750509267168127e+03 6.919759567846058417e+02 7.138245084990467726e-01
1.211634875099453446e+00 1.688017847023741751e+03 7.965935606288624058e+02 6.711657171502474206e-01
1.286996094691360115e+00 1.845729472043335591e+03 8.989599004868897509e+02 6.285069258014480686e-01
1.362357314283266785e+00 2.009349480688447557e+03 9.981991793077484090e+02 5.858481344526486057e-01
1.437718533875173454e+00 2.178354965869370972e+03 1.093511417419279724e+03 5.431893431038492537e-01
1.513079753467080124e+00 2.352237921319895577e+03 1.184171264772813629e+03 5.005305517550497907e-01
1.588440973058986794e+00 2.530506689593898955e+03 1.269526179964065477e+03 4.578717604062504942e-01
1.663802192650893463e+00 2.712687036082093073e+03 1.348994130719273699e+03 4.152129690574510867e-01
1.739163412242800133e+00 2.898322915180731798e+03 1.422060939070858922e+03 3.725541777086517348e-01
1.814524631834706803e+00 3.086976982291865625e+03 1.488277369960161650e+03 3.298953863598523273e-01
1.889885851426613472e+00 3.278422661424796388e+03 1.562010618131391084e+03 4.392329913978098022e-01
1.965247071018520142e+00 3.473374627734568094e+03 1.680057784382928958e+03 7.656914059949978535e-01
2.040608290610427034e+00 3.673383890474472537e+03 1.779773962636290207e+03 2.389285995154332987e-01
2.115969510202333481e+00 3.875626786654212083e+03 1.826128900190629793e+03 2.195896931179234235e-01
