# density  energy_density  pressure   sound_speed_squared  [All in nuclear units]
2.720000000000000022e-14 2.529924618736292620e-11 1.061056609100270887e-19 3.766610435412189122e-08
1.269999999999999890e-13 1.181251617980081254e-10 4.870113551826584858e-18 6.497781477172163475e-08
6.929999999999999754e-13 6.445728594625782745e-10 1.018299070687946017e-16 3.033770597342807186e-07
6.295000000000000137e-12 5.855111460395753757e-09 5.487150723824490656e-15 1.763710043904196507e-06
1.581000000000000150e-11 1.470523320212576141e-08 2.904239460150760759e-14 3.559434472327477622e-06
3.971999999999999958e-11 3.694456170323160790e-08 1.439340266754906811e-13 6.772854871245677111e-06
9.975999999999999982e-11 9.278976412613005154e-08 6.812143616221268841e-13 1.246890511177539320e-05
2.505999999999999928e-10 2.330928829758143313e-07 3.107749196951638608e-12 2.212095130576091967e-05
6.294000000000000186e-10 5.854398883216247602e-07 1.363250409771533549e-11 3.761981047239428883e-05
1.581000000000000021e-09 1.470619631082054101e-06 5.726014178088476303e-11 6.095350986710739404e-05
3.971999999999999932e-09 3.694861084648016046e-06 2.210019573374265380e-10 8.628023653304385055e-05
5.000000000000000105e-09 4.651201787816927976e-06 3.071485916280120014e-10 9.387863480799757518e-05
9.975999999999999465e-09 9.280587964640925786e-06 8.385361004129998845e-10 1.356922228656245837e-04
1.989999999999999952e-08 1.851419242998081003e-05 2.287763168863418088e-09 1.782101978513718314e-04
3.972999999999999908e-08 3.696699295748789187e-05 6.061583099087538954e-09 2.308134738384234820e-04
7.925999999999999637e-08 7.375765469301719828e-05 1.575347858094044765e-08 2.960532096713864875e-04
1.580999999999999930e-07 1.471491184379128891e-04 3.910429618672550719e-08 3.402859755131850544e-04
1.991000000000000027e-07 1.853209783927820692e-04 5.252045687899177454e-08 3.626488188833278743e-04
3.155999999999999938e-07 2.938002528823880299e-04 9.730770378831954314e-08 4.630767356912104081e-04
5.000999999999999849e-07 4.656344063839075714e-04 1.837494945860225819e-07 5.430301232045120323e-04
6.295999999999999732e-07 5.862651417037388971e-04 2.503103884558263872e-07 5.605192962670089638e-04
9.666999999999999941e-07 9.003386739730535665e-04 4.324450868778576936e-07 5.993081670211623108e-04
1.531999999999999901e-06 1.427170885631398036e-03 7.780217275717420968e-07 7.125938556504039095e-04
2.506999999999999883e-06 2.336134972129507662e-03 1.471005394641589826e-06 8.121876172121876309e-04
3.974000000000000407e-06 3.704315759716615697e-03 2.695705763844323844e-06 9.780674166779417152e-04
4.830000000000000343e-06 4.502887798316278223e-03 3.503988717694660908e-06 1.046253037768318664e-03
6.080999999999999885e-06 5.670217999231269741e-03 4.731126407333307547e-06 1.056224360839501646e-03
7.930000000000000308e-06 7.396012414119570652e-03 6.599662989063778187e-06 1.109203753630785610e-03
9.982000000000000313e-06 9.311815711689977113e-03 8.879881089227186733e-06 1.271216815433141075e-03
1.256999999999999993e-05 1.172874412604260098e-02 1.207676739913533738e-05 1.374195438212825332e-03
1.521999999999999997e-05 1.420427250933824909e-02 1.547541302213394990e-05 1.371610497379100249e-03
1.991000000000000080e-05 1.858690797761085312e-02 2.160710455847765458e-05 1.426578142835871997e-03
2.506999999999999883e-05 2.341050104039446925e-02 2.908031724375689851e-05 1.672007475975408053e-03
2.790999999999999875e-05 2.606604784714952258e-02 3.357009132255487721e-05 1.709425557744154774e-03
3.806999999999999973e-05 3.556967988784798945e-02 4.986781576435106434e-05 1.720407281314112165e-03
5.063000000000000145e-05 4.732434580343149871e-02 7.073400252905581275e-05 1.829889149838781265e-03
6.592000000000000583e-05 6.164112392498975052e-02 9.765037643900635188e-05 1.930242980462695823e-03
8.433000000000000066e-05 7.888776783401378612e-02 1.317235490470395893e-04 2.021055815200022837e-03
1.062000000000000064e-04 9.938561165478684845e-02 1.740088341640037047e-04 2.104789529260958983e-03
1.321000000000000126e-04 1.236720406455826121e-01 2.260189757651373944e-04 2.178291718403657477e-03
1.623999999999999901e-04 1.520974545104751274e-01 2.888169908545388338e-04 2.240170365918073281e-03
1.689999999999999879e-04 1.582907717069566844e-01 3.027354772999506964e-04 2.254509350360745651e-03
1.758999999999999930e-04 1.647661861691531171e-01 3.173785841705756782e-04 2.268169273277113179e-03
1.830000000000000029e-04 1.714298948183871907e-01 3.325196584577469103e-04 2.276170334580628063e-03
1.901999999999999882e-04 1.781880600978280049e-01 3.479577791899843742e-04 2.292561569242367037e-03
1.977000000000000079e-04 1.852284385240466902e-01 3.641242634600037713e-04 2.299943765467868384e-03
2.054000000000000053e-04 1.924572004474696396e-01 3.808304060475003897e-04 2.322187632288155723e-03
2.079000000000000119e-04 1.948043378760714872e-01 3.864137987380476553e-04 2.435429768083530178e-03
2.081999999999999921e-04 1.950859988578999005e-01 3.870314100985603909e-04 1.950065624557156818e-03
2.090999999999999868e-04 1.959309855029948977e-01 3.881261957135444685e-04 6.411875526909013856e-04
2.159999999999999919e-04 2.024093317906446865e-01 3.940874488768042125e-04 1.199166870571831411e-03
2.231000000000000019e-04 2.090756740932291913e-01 4.013938420547467825e-04 9.928616047829054436e-04
2.311000000000000066e-04 2.165873044433437034e-01 4.085241694843774404e-04 9.056166966301716637e-04
2.401000000000000085e-04 2.250381721984245909e-01 4.159700687886608468e-04 8.565463878902855599e-04
2.500000000000000052e-04 2.343344406330727658e-01 4.237602369176299592e-04 8.194318812157330018e-04
2.642999999999999733e-04 2.477629128650125634e-01 4.345596643180389446e-04 7.890063723638815647e-04
3.052999999999999941e-04 2.862671839140227270e-01 4.644058706720978241e-04 7.612775562167708662e-04
3.533000000000000224e-04 3.313503829113090826e-01 4.987577676308450197e-04 7.626578558207241024e-04
4.075999999999999871e-04 3.823564017794535141e-01 5.381334366106255759e-04 7.813048116943254948e-04
4.679999999999999915e-04 4.390986251953180042e-01 5.832692638200615834e-04 8.096035963157804938e-04
5.341000000000000261e-04 5.012024644415256081e-01 6.346556894078133086e-04 8.452514814113673558e-04
6.059000000000000366e-04 5.686690698184251325e-01 6.930641302632923034e-04 8.862253587289389486e-04
7.661000000000000275e-04 7.192254882508629654e-01 8.328184776562496576e-04 9.702780530519144065e-04
1.262000000000000101e-03 1.185459127778160093e+00 1.338484980802662205e-03 1.198863597978450275e-03
1.894999999999999983e-03 1.780909071169781921e+00 2.123481960401060308e-03 1.437771491635827115e-03
2.673000000000000029e-03 2.513147344746868850e+00 3.261860252001994032e-03 1.671524566936786766e-03
3.605999999999999830e-03 3.391736073717691369e+00 4.828136641022434151e-03 1.893900408978071038e-03
4.709999999999999777e-03 4.431905410739045870e+00 6.903512974832482635e-03 2.096551352830673849e-03
7.496000000000000059e-03 7.058993649504918366e+00 1.289742191321638018e-02 2.466596387205546859e-03
1.119999999999999989e-02 1.055540362104863661e+01 2.212077014004794340e-02 2.809304433764861584e-03
1.600000000000000033e-02 1.509117352747679952e+01 3.559566804390756900e-02 3.132325055719984222e-03
2.206999999999999934e-02 2.083310616724802244e+01 5.457322122755020599e-02 3.477840948757840792e-03
2.947999999999999926e-02 2.785007348564149154e+01 8.049103664263126956e-02 3.909302116317729670e-03
4.268000000000000266e-02 4.036707211535221518e+01 1.353887601042819133e-01 4.862066536253286525e-03
6.219999999999999835e-02 5.891246509830522626e+01 2.419691225623893105e-01 6.630786177272363080e-03
7.316999999999999893e-02 6.935151695866235855e+01 3.161896974764099033e-01 7.588671314871411888e-03
7.595999999999999974e-02 7.200836722020332559e+01 3.371250777904805096e-01 8.170805199905812125e-03
7.685877551020407761e-02 7.286441686614779201e+01 3.442174292881131636e-01 8.399138861223183483e-03
7.775755102040816935e-02 7.372055063972177891e+01 3.515139837617244911e-01 8.646211094115350063e-03
7.865632653061224722e-02 7.457677001978410658e+01 3.590305303991421226e-01 8.911302233756255090e-03
7.955510204081632508e-02 7.543307662835634630e+01 3.667822492871059548e-01 9.193692615319869546e-03
8.045387755102040295e-02 7.628947221888820707e+01 3.747837113758923921e-01 9.492662573980141863e-03
8.135265306122449469e-02 7.714595866504697597e+01 3.830488784435992500e-01 9.807492444911032614e-03
8.225142857142857256e-02 7.800253795000257639e+01 3.915911030560239037e-01 1.013746256328648676e-02
8.315020408163265042e-02 7.885921215617980806e+01 4.004231285184789435e-01 1.048185326428047008e-02
8.404897959183672829e-02 7.971598345545341147e+01 4.095570888162658463e-01 1.083994488306692927e-02
8.494775510204082003e-02 8.057285409976202573e+01 4.190045085408858894e-01 1.121101775481983184e-02
8.584653061224489790e-02 8.142982641211824557e+01 4.287763027993927722e-01 1.159435221471312102e-02
8.674530612244897576e-02 8.228690277799400121e+01 4.388827771046037163e-01 1.198922859792075565e-02
8.764408163265305363e-02 8.314408563706257382e+01 4.493336272441658119e-01 1.239492723961669457e-02
8.854285714285714537e-02 8.400137747527666932e+01 4.601379391267484409e-01 1.281072847497489835e-02
8.944163265306122323e-02 8.485878081726747268e+01 4.713041886038771833e-01 1.323591263916930501e-02
9.034040816326530110e-02 8.571629821904691937e+01 4.828402412661638721e-01 1.366976006737388553e-02
9.123918367346939284e-02 8.657393226099824801e+01 4.947533522128996775e-01 1.411155109476259009e-02
9.213795918367347071e-02 8.743168554114032531e+01 5.070501657941879348e-01 1.456056605650937405e-02
9.303673469387754857e-02 8.828956066865228536e+01 5.197367153249857763e-01 1.501608528778819104e-02
9.393551020408162644e-02 8.914756025764549463e+01 5.328184227705983211e-01 1.547738912377300165e-02
9.483428571428570431e-02 9.000568692117052194e+01 5.463000984033449248e-01 1.594375789963775603e-02
9.573306122448979605e-02 9.086394326544815669e+01 5.601859404302726997e-01 1.641447195055641822e-02
9.663183673469387391e-02 9.172233188431312101e+01 5.744795345919402330e-01 1.688881161170292800e-02
9.753061224489795178e-02 9.258085535386133813e+01 5.891838537324418645e-01 1.736605721825125806e-02
9.842938775510204352e-02 9.343951622728943107e+01 6.043012573409666244e-01 1.784548910537536032e-02
9.932816326530612139e-02 9.429831702991927500e+01 6.198334910653168217e-01 1.832638760824917626e-02
1.002269387755101993e-01 9.515726025439757052e+01 6.357816861979309619e-01 1.880803306204667166e-02
1.011257142857142910e-01 9.601634835606303398e+01 6.521463591350588063e-01 1.928970580194180884e-02
1.020244897959183689e-01 9.687558374847348830e+01 6.689274108098502980e-01 1.977068616310853275e-02
1.029232653061224467e-01 9.773496879908547896e+01 6.861241261002176683e-01 2.025025448072079529e-02
1.038220408163265246e-01 9.859450582507895433e+01 7.037351732124190740e-01 2.072769108995256224e-02
1.047208163265306025e-01 9.945419708932213609e+01 7.217586030414098186e-01 2.120227632597778550e-02
1.056195918367346942e-01 1.003140447964682664e+02 7.401918485090858146e-01 2.167329052397043085e-02
1.065183673469387721e-01 1.011740510891801534e+02 7.590317238816263190e-01 2.214001401910442937e-02
1.074171428571428499e-01 1.020342180444761340e+02 7.782744240672236913e-01 2.260172714655375725e-02
1.083159183673469417e-01 1.028945476701924520e+02 7.979155238955515372e-01 2.305771024149236292e-02
1.092146938775510195e-01 1.037550419015564813e+02 8.179499773803998730e-01 2.350724363909419828e-02
1.101134693877550974e-01 1.046157025978675392e+02 8.383721169669726692e-01 2.394960767453322564e-02
1.110122448979591891e-01 1.054765315392792786e+02 8.591756527653963138e-01 2.438408268298340731e-02
1.119110204081632531e-01 1.063375304236795102e+02 8.803536717720574778e-01 2.480994899961867090e-02
1.128097959183673449e-01 1.071987008636655219e+02 9.018986370804471520e-01 2.522648695961300300e-02
1.137085714285714227e-01 1.080600443836076749e+02 9.238023870832257067e-01 2.563297689814034511e-02
1.146073469387755006e-01 1.089215624168008958e+02 9.460561346673036498e-01 2.602869915037464565e-02
1.155061224489795924e-01 1.097832563026983337e+02 9.686504664037566270e-01 2.641293405148987736e-02
1.164048979591836702e-01 1.106451272842249125e+02 9.915753417344548293e-01 2.678496193665998171e-02
1.173036734693877481e-01 1.115071765051682320e+02 1.014820092157335374e+00 2.714406314105891754e-02
1.182024489795918398e-01 1.123694050076421718e+02 1.038373420412278536e+00 2.748951799986065064e-02
1.191012244897959177e-01 1.132318137296223028e+02 1.062223399669599555e+00 2.782060684823911556e-02
1.199999999999999956e-01 1.140944035025492695e+02 1.086357472723212148e+00 2.813661002136828501e-02
1.238801586225641432e-01 1.178204469725028360e+02 1.193533732127655123e+00 2.939112403308661789e-02
1.277603172451282909e-01 1.215499231388442070e+02 1.305566243014411931e+00 3.068788900220952715e-02
1.316404758676924525e-01 1.252828777771357807e+02 1.422623491775880433e+00 3.202721162708058178e-02
1.355206344902566140e-01 1.290193589557820530e+02 1.544875626616047715e+00 3.340930083617198176e-02
1.394007931128207478e-01 1.327594168817981597e+02 1.672494119369923427e+00 3.483427022232986336e-02
1.432809517353849094e-01 1.365031037544492278e+02 1.805651435060420695e+00 3.630214053267666330e-02
1.471611103579490709e-01 1.402504736259075173e+02 1.944520709336069686e+00 3.781284221876859974e-02
1.510412689805132047e-01 1.440015822682100008e+02 2.089275433948003968e+00 3.936621805009409003e-02
1.549214276030773663e-01 1.477564870459159181e+02 2.240089150436049614e+00 4.096202579299569602e-02
1.588015862256415001e-01 1.515152467939569192e+02 2.397135152203099029e+00 4.259994095644669548e-02
1.626817448482056616e-01 1.552779217002547796e+02 2.560586195165321488e+00 4.427955960571283711e-02
1.665619034707698232e-01 1.590445731927414954e+02 2.730614217173785718e+00 4.600040124469974290e-02
1.704420620933339570e-01 1.628152638304774769e+02 2.907390066411392304e+00 4.776191176767102115e-02
1.743222207158981185e-01 1.665900571986078944e+02 3.091083238977787140e+00 4.956346648097879892e-02
1.782023793384622801e-01 1.703690178069349201e+02 3.281861625884419098e+00 5.140437319545419770e-02
1.820825379610264139e-01 1.741522109919219474e+02 3.479891269692217293e+00 5.328387539013241386e-02
1.859626965835905754e-01 1.779397028219696608e+02 3.685336131035458873e+00 5.520115544802960822e-02
1.898428552061547370e-01 1.817315600058340124e+02 3.898357865287293222e+00 5.715533796473015044e-02
1.937230138287188708e-01 1.855278498040711099e+02 4.119115609635115582e+00 5.914549313058328067e-02
1.976031724512830323e-01 1.893286399434212797e+02 4.347765780847327122e+00 6.117064018733632536e-02
2.014833310738471939e-01 1.931339985340534611e+02 4.584461884027002831e+00 6.322975096004983253e-02
2.053634896964113277e-01 1.969439939896098224e+02 4.829354332662575189e+00 6.532175346514335068e-02
2.092436483189754892e-01 2.007586949500031039e+02 5.082590280300533614e+00 6.744553559540751586e-02
2.131238069415396508e-01 2.045781702069284336e+02 5.344313464180450168e+00 6.959994888278803193e-02
2.170039655641037846e-01 2.084024886320655412e+02 5.614664061188163302e+00 7.178381233969895192e-02
2.208841241866679461e-01 2.122317191079523298e+02 5.893778556498533661e+00 7.399591637955292567e-02
2.247642828092321077e-01 2.160659304615222709e+02 6.181789625294739743e+00 7.623502681710668527e-02
2.286444414317962415e-01 2.199051914003051706e+02 6.478826027966576362e+00 7.849988894910567283e-02
2.325246000543604030e-01 2.237495704512963925e+02 6.785012519205306347e+00 8.078923171557407523e-02
2.364047586769245646e-01 2.275991359025088627e+02 7.100469771427310839e+00 8.310177194192998329e-02
2.402849172994886984e-01 2.314539557472240858e+02 7.425314312972958852e+00 8.543621866190982683e-02
2.441650759220528599e-01 2.353140976309695134e+02 7.759658481540411934e+00 8.779127752105880811e-02
2.480452345446170215e-01 2.391796288012492653e+02 8.103610393326487582e+00 9.016565526027897626e-02
2.519253931671811553e-01 2.430506160600615431e+02 8.457273928358038262e+00 9.255806427862570129e-02
2.558055517897452891e-01 2.469271257192444864e+02 8.820748732507169620e+00 9.496722727419731891e-02
2.596857104123094784e-01 2.508092235586899790e+02 9.194130236692009461e+00 9.739188196157173849e-02
2.635658690348736122e-01 2.546969747874715893e+02 9.577509693771236954e+00 9.983078586380189634e-02
2.674460276574377460e-01 2.585904440079386291e+02 9.970974233645181428e+00 1.022827211764873595e-01
2.713261862800019353e-01 2.624896951828267788e+02 1.037460693707817683e+01 1.047464997008822063e-01
2.752063449025660691e-01 2.663947916054412985e+02 1.078848692875649995e+01 1.072209678423842877e-01
2.790865035251302029e-01 2.703057958729730785e+02 1.121268949009266969e+01 1.097050116700628852e-01
2.829666621476943922e-01 2.742227698630044870e+02 1.164728619227989981e+01 1.121975620321256778e-01
2.868468207702585260e-01 2.781457747132698159e+02 1.209234505009009908e+01 1.146975997213925402e-01
2.907269793928226598e-01 2.820748708047325408e+02 1.254793069689426943e+01 1.172041606839283462e-01
2.946071380153868491e-01 2.860101177480462411e+02 1.301410458136493453e+01 1.197163412629928952e-01
2.984872966379509829e-01 2.899515743734625630e+02 1.349092518629649007e+01 1.222333034693783571e-01
3.023674552605151167e-01 2.938992987242529580e+02 1.397844826995019574e+01 1.247542802680349228e-01
3.062476138830793060e-01 2.978533480537126366e+02 1.447672713029540859e+01 1.272785808696204057e-01
3.101277725056434398e-01 3.018137788258069918e+02 1.498581289247771586e+01 1.298055960142459331e-01
3.854312873524670113e-01 3.807147100483338136e+02 3.522335082616231716e+01 3.751976165665161789e-01
4.607348021992906384e-01 4.653751891635293418e+02 7.802713264152833972e+01 6.205896371187866745e-01
5.360383170461142655e-01 5.586840053540810231e+02 1.377203988253343141e+02 6.569316949006975825e-01
6.113418318929377815e-01 6.609087788441499924e+02 2.018963888684806420e+02 6.029749008112827990e-01
6.866453467397615196e-01 7.710107697289023463e+02 2.651310152868801424e+02 5.490181067218679045e-01
7.619488615865850356e-01 8.879405634942709185e+02 3.260218799376202128e+02 4.950613126324531765e-01
8.372523764334085516e-01 1.010728431873340583e+03 3.833740918546371859e+02 4.411045185430383930e-01
9.125558912802322897e-01 1.138480611379689208e+03 4.361815507845435036e+02 3.871477244536234985e-01
9.878594061270558058e-01 1.270375300246411598e+03 4.836091098256749206e+02 3.331909303642087150e-01
1.063162920973879544e+00 1.405658556123999460e+03 5.249757752177613384e+02 2.792341362747938205e-01
1.138466435820703060e+00 1.543640206481588393e+03 5.597390095911702019e+02 2.252773421853790370e-01
1.213769950667526576e+00 1.683742107153193729e+03 5.894693600892421728e+02 1.993759442094013012e-01
1.289073465514350314e+00 1.825627613009336983e+03 6.174946171605409972e+02 1.957132240776383869e-01
1.364376980361173830e+00 1.969145403289405294e+03 6.453169924944000968e+02 1.920505039458755281e-01
1.439680495207997568e+00 2.114193227077588745e+03 6.729050334940991434e+02 1.883877838141126138e-01
1.514984010054821084e+00 2.260677971527700720e+03 7.002301240685652601e+02 1.847250636823497272e-01
1.590287524901644600e+00 2.408514429100831876e+03 7.272661234728758473e+02 1.810623435505868684e-01
1.665591039748468338e+00 2.557624283114563696e+03 7.539890673210260275e+02 1.773996234188239540e-01
1.740894554595291854e+00 2.707935264657796324e+03 7.803769175951103989e+02 1.737369032870610674e-01
1.816198069442115592e+00 2.859380445639615573e+03 8.064093517360573742e+02 1.700741831552981809e-01
1.891501584288939108e+00 3.011897641162269792e+03 8.320675832496644944e+02 1.664114630235352943e-01
1.966805099135762624e+00 3.165428900558453279e+03 8.573342079801520867e+02 1.627487428917724355e-01
2.042108613982586363e+00 3.319920070988493990e+03 8.821930714790174761e+02 1.590860227600095211e-01
2.117412128829409657e+00 3.475345223462992180e+03 9.082645475021045058e+02 1.763446848773343456e-01
