# density  energy_density  pressure   sound_speed_squared  [All in nuclear units]
2.720000000000000022e-14 2.529924618736292620e-11 1.061056609100270887e-19 3.766610435412189122e-08
1.269999999999999890e-13 1.181251617980081254e-10 4.870113551826584858e-18 6.497781477172163475e-08
6.929999999999999754e-13 6.445728594625782745e-10 1.018299070687946017e-16 3.033770597342807186e-07
6.295000000000000137e-12 5.855111460395753757e-09 5.487150723824490656e-15 1.763710043904196507e-06
1.581000000000000150e-11 1.470523320212576141e-08 2.904239460150760759e-14 3.559434472327477622e-06
3.971999999999999958e-11 3.694456170323160790e-08 1.439340266754906811e-13 6.772854871245677111e-06
9.975999999999999982e-11 9.278976412613005154e-08 6.812143616221268841e-13 1.246890511177539320e-05
2.505999999999999928e-10 2.330928829758143313e-07 3.107749196951638608e-12 2.212095130576091967e-05
6.294000000000000186e-10 5.854398883216247602e-07 1.363250409771533549e-11 3.761981047239428883e-05
1.581000000000000021e-09 1.470619631082054101e-06 5.726014178088476303e-11 6.095350986710739404e-05
3.971999999999999932e-09 3.694861084648016046e-06 2.210019573374265380e-10 8.628023653304385055e-05
5.000000000000000105e-09 4.651201787816927976e-06 3.071485916280120014e-10 9.387863480799757518e-05
9.975999999999999465e-09 9.280587964640925786e-06 8.385361004129998845e-10 1.356922228656245837e-04
1.989999999999999952e-08 1.851419242998081003e-05 2.287763168863418088e-09 1.782101978513718314e-04
3.972999999999999908e-08 3.696699295748789187e-05 6.061583099087538954e-09 2.308134738384234820e-04
7.925999999999999637e-08 7.375765469301719828e-05 1.575347858094044765e-08 2.960532096713864875e-04
1.580999999999999930e-07 1.471491184379128891e-04 3.910429618672550719e-08 3.402859755131850544e-04
1.991000000000000027e-07 1.853209783927820692e-04 5.252045687899177454e-08 3.626488188833278743e-04
3.155999999999999938e-07 2.938002528823880299e-04 9.730770378831954314e-08 4.630767356912104081e-04
5.000999999999999849e-07 4.656344063839075714e-04 1.837494945860225819e-07 5.430301232045120323e-04
6.295999999999999732e-07 5.862651417037388971e-04 2.503103884558263872e-07 5.605192962670089638e-04
9.666999999999999941e-07 9.003386739730535665e-04 4.324450868778576936e-07 5.993081670211623108e-04
1.531999999999999901e-06 1.427170885631398036e-03 7.780217275717420968e-07 7.125938556504039095e-04
2.506999999999999883e-06 2.336134972129507662e-03 1.471005394641589826e-06 8.121876172121876309e-04
3.974000000000000407e-06 3.704315759716615697e-03 2.695705763844323844e-06 9.780674166779417152e-04
4.830000000000000343e-06 4.502887798316278223e-03 3.503988717694660908e-06 1.046253037768318664e-03
6.080999999999999885e-06 5.670217999231269741e-03 4.731126407333307547e-06 1.056224360839501646e-03
7.930000000000000308e-06 7.396012414119570652e-03 6.599662989063778187e-06 1.109203753630785610e-03
9.982000000000000313e-06 9.311815711689977113e-03 8.879881089227186733e-06 1.271216815433141075e-03
1.256999999999999993e-05 1.172874412604260098e-02 1.207676739913533738e-05 1.374195438212825332e-03
1.521999999999999997e-05 1.420427250933824909e-02 1.547541302213394990e-05 1.371610497379100249e-03
1.991000000000000080e-05 1.858690797761085312e-02 2.160710455847765458e-05 1.426578142835871997e-03
2.506999999999999883e-05 2.341050104039446925e-02 2.908031724375689851e-05 1.672007475975408053e-03
2.790999999999999875e-05 2.606604784714952258e-02 3.357009132255487721e-05 1.709425557744154774e-03
3.806999999999999973e-05 3.556967988784798945e-02 4.986781576435106434e-05 1.720407281314112165e-03
5.063000000000000145e-05 4.732434580343149871e-02 7.073400252905581275e-05 1.829889149838781265e-03
6.592000000000000583e-05 6.164112392498975052e-02 9.765037643900635188e-05 1.930242980462695823e-03
8.433000000000000066e-05 7.888776783401378612e-02 1.317235490470395893e-04 2.021055815200022837e-03
1.062000000000000064e-04 9.938561165478684845e-02 1.740088341640037047e-04 2.104789529260958983e-03
1.321000000000000126e-04 1.236720406455826121e-01 2.260189757651373944e-04 2.178291718403657477e-03
1.623999999999999901e-04 1.520974545104751274e-01 2.888169908545388338e-04 2.240170365918073281e-03
1.689999999999999879e-04 1.582907717069566844e-01 3.027354772999506964e-04 2.254509350360745651e-03
1.758999999999999930e-04 1.647661861691531171e-01 3.173785841705756782e-04 2.268169273277113179e-03
1.830000000000000029e-04 1.714298948183871907e-01 3.325196584577469103e-04 2.276170334580628063e-03
1.901999999999999882e-04 1.781880600978280049e-01 3.479577791899843742e-04 2.292561569242367037e-03
1.977000000000000079e-04 1.852284385240466902e-01 3.641242634600037713e-04 2.299943765467868384e-03
2.054000000000000053e-04 1.924572004474696396e-01 3.808304060475003897e-04 2.322187632288155723e-03
2.079000000000000119e-04 1.948043378760714872e-01 3.864137987380476553e-04 2.435429768083530178e-03
2.081999999999999921e-04 1.950859988578999005e-01 3.870314100985603909e-04 1.950065624557156818e-03
2.090999999999999868e-04 1.959309855029948977e-01 3.881261957135444685e-04 6.411875526909013856e-04
2.159999999999999919e-04 2.024093317906446865e-01 3.940874488768042125e-04 1.199166870571831411e-03
2.231000000000000019e-04 2.090756740932291913e-01 4.013938420547467825e-04 9.928616047829054436e-04
2.311000000000000066e-04 2.165873044433437034e-01 4.085241694843774404e-04 9.056166966301716637e-04
2.401000000000000085e-04 2.250381721984245909e-01 4.159700687886608468e-04 8.565463878902855599e-04
2.500000000000000052e-04 2.343344406330727658e-01 4.237602369176299592e-04 8.194318812157330018e-04
2.642999999999999733e-04 2.477629128650125634e-01 4.345596643180389446e-04 7.890063723638815647e-04
3.052999999999999941e-04 2.862671839140227270e-01 4.644058706720978241e-04 7.612775562167708662e-04
3.533000000000000224e-04 3.313503829113090826e-01 4.987577676308450197e-04 7.626578558207241024e-04
4.075999999999999871e-04 3.823564017794535141e-01 5.381334366106255759e-04 7.813048116943254948e-04
4.679999999999999915e-04 4.390986251953180042e-01 5.832692638200615834e-04 8.096035963157804938e-04
5.341000000000000261e-04 5.012024644415256081e-01 6.346556894078133086e-04 8.452514814113673558e-04
6.059000000000000366e-04 5.686690698184251325e-01 6.930641302632923034e-04 8.862253587289389486e-04
7.661000000000000275e-04 7.192254882508629654e-01 8.328184776562496576e-04 9.702780530519144065e-04
1.262000000000000101e-03 1.185459127778160093e+00 1.338484980802662205e-03 1.198863597978450275e-03
1.894999999999999983e-03 1.780909071169781921e+00 2.123481960401060308e-03 1.437771491635827115e-03
2.673000000000000029e-03 2.513147344746868850e+00 3.261860252001994032e-03 1.671524566936786766e-03
3.605999999999999830e-03 3.391736073717691369e+00 4.828136641022434151e-03 1.893900408978071038e-03
4.709999999999999777e-03 4.431905410739045870e+00 6.903512974832482635e-03 2.096551352830673849e-03
7.496000000000000059e-03 7.058993649504918366e+00 1.289742191321638018e-02 2.466596387205546859e-03
1.119999999999999989e-02 1.055540362104863661e+01 2.212077014004794340e-02 2.809304433764861584e-03
1.600000000000000033e-02 1.509117352747679952e+01 3.559566804390756900e-02 3.132325055719984222e-03
2.206999999999999934e-02 2.083310616724802244e+01 5.457322122755020599e-02 3.477840948757840792e-03
2.947999999999999926e-02 2.785007348564149154e+01 8.049103664263126956e-02 3.909302116317729670e-03
4.268000000000000266e-02 4.036707211535221518e+01 1.353887601042819133e-01 4.862066536253286525e-03
6.219999999999999835e-02 5.891246509830522626e+01 2.419691225623893105e-01 6.630786177272363080e-03
7.316999999999999893e-02 6.935151695866235855e+01 3.161896974764099033e-01 7.588671314871411888e-03
7.595999999999999974e-02 7.200836722020332559e+01 3.371250777904805096e-01 8.170805199905812125e-03
7.685877551020407761e-02 7.286441680002504029e+01 3.442061133002445872e-01 8.372703758090753803e-03
7.775755102040816935e-02 7.372055020061887376e+01 3.514613172563338939e-01 8.576057542473123491e-03
7.865632653061224722e-02 7.457676847366118977e+01 3.588919628632239456e-01 8.780829459197021097e-03
7.955510204081632508e-02 7.543307266116627829e+01 3.664992924855239864e-01 8.986982414406562147e-03
8.045387755102040295e-02 7.628946379546580658e+01 3.742845176359528847e-01 9.194479314245856960e-03
8.135265306122449469e-02 7.714594289918811398e+01 3.822488189627836208e-01 9.403283064859012386e-03
8.225142857142857256e-02 7.800251098523898463e+01 3.903933462367613072e-01 9.613356572390130070e-03
8.315020408163265042e-02 7.885916905678293176e+01 3.987192183375047327e-01 9.824662742983329006e-03
8.404897959183672829e-02 7.971591810722512150e+01 4.072275232393959832e-01 1.003716448278271257e-02
8.494775510204082003e-02 8.057275912019362352e+01 4.159193179969672971e-01 1.025082469793239109e-02
8.584653061224489790e-02 8.142969306952288377e+01 4.247956287297910971e-01 1.046560629457646968e-02
8.674530612244897576e-02 8.228672091923709786e+01 4.338574506068828551e-01 1.068147217885905866e-02
8.764408163265305363e-02 8.314384362353450797e+01 4.431057478306209552e-01 1.089838525692426834e-02
8.854285714285714537e-02 8.400106212677199835e+01 4.525414536201934901e-01 1.111630843491620731e-02
8.944163265306122323e-02 8.485837736345034443e+01 4.621654701945773769e-01 1.133520461897898242e-02
9.034040816326530110e-02 8.571579025819944775e+01 4.719786687550597826e-01 1.155503671525669879e-02
9.123918367346939284e-02 8.657330172576453720e+01 4.819818894673059684e-01 1.177576762989347541e-02
9.213795918367347071e-02 8.743091267099239872e+01 4.921759414429827673e-01 1.199736026903341565e-02
9.303673469387754857e-02 8.828862398881796025e+01 5.025616027209459657e-01 1.221977753882062291e-02
9.393551020408162644e-02 8.914643656425137408e+01 5.131396202479963087e-01 1.244298234539921097e-02
9.483428571428570431e-02 9.000435127236509913e+01 5.239107098592138412e-01 1.266693759491328668e-02
9.573306122448979605e-02 9.086236897828189285e+01 5.348755562578773048e-01 1.289160619350696209e-02
9.663183673469387391e-02 9.172049053716224876e+01 5.460348129949746943e-01 1.311695104732434058e-02
9.753061224489795178e-02 9.257871679419282884e+01 5.573891024483152989e-01 1.334293506250953248e-02
9.842938775510204352e-02 9.343704858457475382e+01 5.689390158012475052e-01 1.356952114520664984e-02
9.932816326530612139e-02 9.429548673351202126e+01 5.806851130209907952e-01 1.379667220155979604e-02
1.002269387755101993e-01 9.515403205620063432e+01 5.926279228365914920e-01 1.402435113771308486e-02
1.011257142857142910e-01 9.601268535781737512e+01 6.047679427165064681e-01 1.425252085981062664e-02
1.020244897959183689e-01 9.687144743350917508e+01 6.171056388458231456e-01 1.448114427399651953e-02
1.029232653061224467e-01 9.773031906838230043e+01 6.296414461031260013e-01 1.471018428641487560e-02
1.038220408163265246e-01 9.858930103749202090e+01 6.423757680370122403e-01 1.493960380320981385e-02
1.047208163265306025e-01 9.944839410583236372e+01 6.553089768422685202e-01 1.516936573052542897e-02
1.056195918367346942e-01 1.003075990283260097e+02 6.684414133357134968e-01 1.539943297450584170e-02
1.065183673469387721e-01 1.011669165498140615e+02 6.817733869317138540e-01 1.562976844129514847e-02
1.074171428571428499e-01 1.020263474050463230e+02 6.953051756173838083e-01 1.586033503703746655e-02
1.083159183673469417e-01 1.028858923186715799e+02 7.090370259274721976e-01 1.609109566787690626e-02
1.092146938775510195e-01 1.037455520052277933e+02 7.229691529189455901e-01 1.632201323995756403e-02
1.101134693877550974e-01 1.046053271691328774e+02 7.371017401452780726e-01 1.655305065942356407e-02
1.110122448979591891e-01 1.054652185046747377e+02 7.514349396304502715e-01 1.678417083241900629e-02
1.119110204081632531e-01 1.063252266960026589e+02 7.659688718426671539e-01 1.701533666508799406e-02
1.128097959183673449e-01 1.071853524171173575e+02 7.807036256678064889e-01 1.724651106357465158e-02
1.137085714285714227e-01 1.080455963318621571e+02 7.956392583825950826e-01 1.747765693402306836e-02
1.146073469387755006e-01 1.089059590939139071e+02 8.107757956275331024e-01 1.770873718257736512e-02
1.155061224489795924e-01 1.097664413467739593e+02 8.261132313795639392e-01 1.793971471538165566e-02
1.164048979591836702e-01 1.106270437237590158e+02 8.416515279245012637e-01 1.817055243858003294e-02
1.173036734693877481e-01 1.114877668479925319e+02 8.573906158292227131e-01 1.840121325831661769e-02
1.182024489795918398e-01 1.123486113323953646e+02 8.733303939136333183e-01 1.863166008073551677e-02
1.191012244897959177e-01 1.132095777796779004e+02 8.894707292224087736e-01 1.886185581198083355e-02
1.199999999999999956e-01 1.140706667823303633e+02 9.058114569965278751e-01 1.909176335819668183e-02
1.232943143334281205e-01 1.172279100896889901e+02 9.674304342214088415e-01 1.994145853374002311e-02
1.265886286668562455e-01 1.203868368233471386e+02 1.031832965982957484e+00 2.083328991290546092e-02
1.298829430002843843e-01 1.235474774092386383e+02 1.099158031480311104e+00 2.176866334931347804e-02
1.331772573337124954e-01 1.267098643158025197e+02 1.169549419158486980e+00 2.274899366462108594e-02
1.364715716671406343e-01 1.298740320220125284e+02 1.243155781013352446e+00 2.377570505091058245e-02
1.397658860005687731e-01 1.330400169898340437e+02 1.320130689295015758e+00 2.485023129036775108e-02
1.430602003339968842e-01 1.362078576406383377e+02 1.400632695108321224e+00 2.597401580307105717e-02
1.463545146674250230e-01 1.393775943351559761e+02 1.484825388439986682e+00 2.714851153203004172e-02
1.496488290008531341e-01 1.425492693565974491e+02 1.572877459167784098e+00 2.837518067317908871e-02
1.529431433342812729e-01 1.457229268966116820e+02 1.664962758628751649e+00 2.965549425681340140e-02
1.562374576677094118e-01 1.488986130437804150e+02 1.761260361341218772e+00 3.099093158591104125e-02
1.595317720011375229e-01 1.520763757743843883e+02 1.861954626490051723e+00 3.238297953589330119e-02
1.628260863345656617e-01 1.552562649451942036e+02 1.967235258796249164e+00 3.383313171961029042e-02
1.661204006679937728e-01 1.584383322880677838e+02 2.077297368401268773e+00 3.534288752068433237e-02
1.694147150014219116e-01 1.616226314061503047e+02 2.192341529403543099e+00 3.691375099778457930e-02
1.727090293348500505e-01 1.648092177714907507e+02 2.312573836689690854e+00 3.854722966192791755e-02
1.760033436682781616e-01 1.679981487239069224e+02 2.438205960706344655e+00 4.024483312849928135e-02
1.792976580017063004e-01 1.711894834709360111e+02 2.569455199820286140e+00 4.200807164534306470e-02
1.825919723351344115e-01 1.743832830887275236e+02 2.706544529915019037e+00 4.383845449799831512e-02
1.858862866685625503e-01 1.775796105237368465e+02 2.849702650871124732e+00 4.573748829292042378e-02
1.891806010019906892e-01 1.807785305950939971e+02 2.999164029575777324e+00 4.770667511935211547e-02
1.924749153354188003e-01 1.839801099975210548e+02 3.155168939103938364e+00 4.974751059037154505e-02
1.957692296688469114e-01 1.871844173046873721e+02 3.317963493709924272e+00 5.186148176354971051e-02
1.990635440022750502e-01 1.903915229728872021e+02 3.487799679263467567e+00 5.405006494159624725e-02
2.023578583357031890e-01 1.936014993449389578e+02 3.664935378759131446e+00 5.631472335335480778e-02
2.056521726691313279e-01 1.968144206542027064e+02 3.849634392522077952e+00 5.865690471552963137e-02
2.089464870025594390e-01 2.000303630286180692e+02 4.042166452726782211e+00 6.107803867557922567e-02
2.122408013359875500e-01 2.032494044946701024e+02 4.242807231838511939e+00 6.357953413630552941e-02
2.155351156694156889e-01 2.064716249811901889e+02 4.451838344580209217e+00 6.616277646279010438e-02
2.188294300028438277e-01 2.096971063229014476e+02 4.669547343020041374e+00 6.882912457249362737e-02
2.221237443362719666e-01 2.129259322636240483e+02 4.896227704367333899e+00 7.157990790952963034e-02
2.254180586697000777e-01 2.161581884590525249e+02 5.132178811056954615e+00 7.441642330436039343e-02
2.287123730031281887e-01 2.193939624790214395e+02 5.377705922694681284e+00 7.733993172043428233e-02
2.320066873365563276e-01 2.226333438091743631e+02 5.633120139428630324e+00 8.035165488959786217e-02
2.353010016699844664e-01 2.258764238519575258e+02 5.898738356304702002e+00 8.345277183847071845e-02
2.385953160034126053e-01 2.291232959268511138e+02 6.174883208157262438e+00 8.664441530836972105e-02
2.418896303368407164e-01 2.323740552697610724e+02 6.461883004580053047e+00 8.992766807181598598e-02
2.451839446702688552e-01 2.356287990314903311e+02 6.760071654516893069e+00 9.330355914915287874e-02
2.484782590036969663e-01 2.388876262752047808e+02 7.069788580007052126e+00 9.677305992935260337e-02
2.517725733371251051e-01 2.421506379728188278e+02 7.391378618616780471e+00 1.003370801996978368e-01
2.550668876705531884e-01 2.454179370002180178e+02 7.725191914086085632e+00 1.039964640896885589e-01
2.583612020039813828e-01 2.486896281312378392e+02 8.071583794719359162e+00 1.077519859352667475e-01
2.616555163374094661e-01 2.519658180303208894e+02 8.430914639049293058e+00 1.116043460702526718e-01
2.649498306708376050e-01 2.552466152437714015e+02 8.803549728307153543e+00 1.155541665527810985e-01
2.682441450042657438e-01 2.585321301895266970e+02 9.189859085237605640e+00 1.196019868354925575e-01
2.715384593376938271e-01 2.618224751453679460e+02 9.590217298805267632e+00 1.237482593893074051e-01
2.748327736711220215e-01 2.651177642354924160e+02 1.000500333435154943e+01 1.279933452917799697e-01
2.781270880045501048e-01 2.684181134153620860e+02 1.043460032877569077e+01 1.323375097923076005e-01
2.814214023379782437e-01 2.717236404547606412e+02 1.087939537033388326e+01 1.367809178678860149e-01
3.573107614739378657e-01 3.508732281157844000e+02 4.391345935488173069e+01 6.636263286861205923e-01
4.332001206098974877e-01 4.402831924116474624e+02 9.682922551080065432e+01 5.333784935538846694e-01
5.090894797458571652e-01 5.383883329529336379e+02 1.423778800494026484e+02 4.031306584216485800e-01
5.849788388818166762e-01 6.425182320211914657e+02 1.773449673713271295e+02 2.728828232894128236e-01
6.608681980177764093e-01 7.506600980194029944e+02 2.056980000824320882e+02 2.520639928041167876e-01
7.367575571537359203e-01 8.620662650667909475e+02 2.345909707891644018e+02 2.664994029117381258e-01
8.126469162896956533e-01 9.765751939429983395e+02 2.659417914255025153e+02 2.809348130193595194e-01
8.885362754256551643e-01 1.094129745618556854e+03 2.998235449566732882e+02 2.953702231269809131e-01
9.644256345616148973e-01 1.214688948585769140e+03 3.363117456387299740e+02 3.098056332346023067e-01
1.040314993697574408e+00 1.338224347370060968e+03 3.754841097763821836e+02 3.242410433422237004e-01
1.116204352833534141e+00 1.464717408588760463e+03 4.174204156366396887e+02 3.386764534498450940e-01
1.192093711969493652e+00 1.594157627982428949e+03 4.622024197901031926e+02 3.531118635574664877e-01
1.267983071105453385e+00 1.726541117188926819e+03 5.099138103680734275e+02 3.675472736650878813e-01
1.343872430241412896e+00 1.861869527939280488e+03 5.606401851745887370e+02 3.819826837727092750e-01
1.419761789377372407e+00 2.000149219236442832e+03 6.144690469669669710e+02 3.964180938803306686e-01
1.495651148513332140e+00 2.141396889770279813e+03 6.719000034438477087e+02 4.165398195974310824e-01
1.571540507649291873e+00 2.285688177346356952e+03 7.354057096824864175e+02 4.630382582829031257e-01
1.647429866785251384e+00 2.433239155447601206e+03 8.072114377809551797e+02 5.095366969683751135e-01
1.723319225921210895e+00 2.584291614166805630e+03 8.877494605836157007e+02 5.560351356538471013e-01
1.799208585057170628e+00 2.739085765743986485e+03 9.774849042701783901e+02 6.025335743393190890e-01
1.875097944193130362e+00 2.897861845545630331e+03 1.076916455905896782e+03 6.490320130247911878e-01
1.950987303329089873e+00 3.060803706055412476e+03 1.178384367868527988e+03 5.975131314218523615e-01
2.026876662465049606e+00 3.227567849532592845e+03 1.273113526804071626e+03 5.396102887653264624e-01
2.102766021601009339e+00 3.397730162852695685e+03 1.359934906034524829e+03 4.817074461088005632e-01
