# density  energy_density  pressure   sound_speed_squared  [All in nuclear units]
2.720000000000000022e-14 2.529924618736292620e-11 1.061056609100270887e-19 3.766610435412189122e-08
1.269999999999999890e-13 1.181251617980081254e-10 4.870113551826584858e-18 6.497781477172163475e-08
6.929999999999999754e-13 6.445728594625782745e-10 1.018299070687946017e-16 3.033770597342807186e-07
6.295000000000000137e-12 5.855111460395753757e-09 5.487150723824490656e-15 1.763710043904196507e-06
1.581000000000000150e-11 1.470523320212576141e-08 2.904239460150760759e-14 3.559434472327477622e-06
3.971999999999999958e-11 3.694456170323160790e-08 1.439340266754906811e-13 6.772854871245677111e-06
9.975999999999999982e-11 9.278976412613005154e-08 6.812143616221268841e-13 1.246890511177539320e-05
2.505999999999999928e-10 2.330928829758143313e-07 3.107749196951638608e-12 2.212095130576091967e-05
6.294000000000000186e-10 5.854398883216247602e-07 1.363250409771533549e-11 3.761981047239428883e-05
1.581000000000000021e-09 1.470619631082054101e-06 5.726014178088476303e-11 6.095350986710739404e-05
3.971999999999999932e-09 3.694861084648016046e-06 2.210019573374265380e-10 8.628023653304385055e-05
5.000000000000000105e-09 4.651201787816927976e-06 3.071485916280120014e-10 9.387863480799757518e-05
9.975999999999999465e-09 9.280587964640925786e-06 8.385361004129998845e-10 1.356922228656245837e-04
1.989999999999999952e-08 1.851419242998081003e-05 2.287763168863418088e-09 1.782101978513718314e-04
3.972999999999999908e-08 3.696699295748789187e-05 6.061583099087538954e-09 2.308134738384234820e-04
7.925999999999999637e-08 7.375765469301719828e-05 1.575347858094044765e-08 2.960532096713864875e-04
1.580999999999999930e-07 1.471491184379128891e-04 3.910429618672550719e-08 3.402859755131850544e-04
1.991000000000000027e-07 1.853209783927820692e-04 5.252045687899177454e-08 3.626488188833278743e-04
3.155999999999999938e-07 2.938002528823880299e-04 9.730770378831954314e-08 4.630767356912104081e-04
5.000999999999999849e-07 4.656344063839075714e-04 1.837494945860225819e-07 5.430301232045120323e-04
6.295999999999999732e-07 5.862651417037388971e-04 2.503103884558263872e-07 5.605192962670089638e-04
9.666999999999999941e-07 9.003386739730535665e-04 4.324450868778576936e-07 5.993081670211623108e-04
1.531999999999999901e-06 1.427170885631398036e-03 7.780217275717420968e-07 7.125938556504039095e-04
2.506999999999999883e-06 2.336134972129507662e-03 1.471005394641589826e-06 8.121876172121876309e-04
3.974000000000000407e-06 3.704315759716615697e-03 2.695705763844323844e-06 9.780674166779417152e-04
4.830000000000000343e-06 4.502887798316278223e-03 3.503988717694660908e-06 1.046253037768318664e-03
6.080999999999999885e-06 5.670217999231269741e-03 4.731126407333307547e-06 1.056224360839501646e-03
7.930000000000000308e-06 7.396012414119570652e-03 6.599662989063778187e-06 1.109203753630785610e-03
9.982000000000000313e-06 9.311815711689977113e-03 8.879881089227186733e-06 1.271216815433141075e-03
1.256999999999999993e-05 1.172874412604260098e-02 1.207676739913533738e-05 1.374195438212825332e-03
1.521999999999999997e-05 1.420427250933824909e-02 1.547541302213394990e-05 1.371610497379100249e-03
1.991000000000000080e-05 1.858690797761085312e-02 2.160710455847765458e-05 1.426578142835871997e-03
2.506999999999999883e-05 2.341050104039446925e-02 2.908031724375689851e-05 1.672007475975408053e-03
2.790999999999999875e-05 2.606604784714952258e-02 3.357009132255487721e-05 1.709425557744154774e-03
3.806999999999999973e-05 3.556967988784798945e-02 4.986781576435106434e-05 1.720407281314112165e-03
5.063000000000000145e-05 4.732434580343149871e-02 7.073400252905581275e-05 1.829889149838781265e-03
6.592000000000000583e-05 6.164112392498975052e-02 9.765037643900635188e-05 1.930242980462695823e-03
8.433000000000000066e-05 7.888776783401378612e-02 1.317235490470395893e-04 2.021055815200022837e-03
1.062000000000000064e-04 9.938561165478684845e-02 1.740088341640037047e-04 2.104789529260958983e-03
1.321000000000000126e-04 1.236720406455826121e-01 2.260189757651373944e-04 2.178291718403657477e-03
1.623999999999999901e-04 1.520974545104751274e-01 2.888169908545388338e-04 2.240170365918073281e-03
1.689999999999999879e-04 1.582907717069566844e-01 3.027354772999506964e-04 2.254509350360745651e-03
1.758999999999999930e-04 1.647661861691531171e-01 3.173785841705756782e-04 2.268169273277113179e-03
1.830000000000000029e-04 1.714298948183871907e-01 3.325196584577469103e-04 2.276170334580628063e-03
1.901999999999999882e-04 1.781880600978280049e-01 3.479577791899843742e-04 2.292561569242367037e-03
1.977000000000000079e-04 1.852284385240466902e-01 3.641242634600037713e-04 2.299943765467868384e-03
2.054000000000000053e-04 1.924572004474696396e-01 3.808304060475003897e-04 2.322187632288155723e-03
2.079000000000000119e-04 1.948043378760714872e-01 3.864137987380476553e-04 2.435429768083530178e-03
2.081999999999999921e-04 1.950859988578999005e-01 3.870314100985603909e-04 1.950065624557156818e-03
2.090999999999999868e-04 1.959309855029948977e-01 3.881261957135444685e-04 6.411875526909013856e-04
2.159999999999999919e-04 2.024093317906446865e-01 3.940874488768042125e-04 1.199166870571831411e-03
2.231000000000000019e-04 2.090756740932291913e-01 4.013938420547467825e-04 9.928616047829054436e-04
2.311000000000000066e-04 2.165873044433437034e-01 4.085241694843774404e-04 9.056166966301716637e-04
2.401000000000000085e-04 2.250381721984245909e-01 4.159700687886608468e-04 8.565463878902855599e-04
2.500000000000000052e-04 2.343344406330727658e-01 4.237602369176299592e-04 8.194318812157330018e-04
2.642999999999999733e-04 2.477629128650125634e-01 4.345596643180389446e-04 7.890063723638815647e-04
3.052999999999999941e-04 2.862671839140227270e-01 4.644058706720978241e-04 7.612775562167708662e-04
3.533000000000000224e-04 3.313503829113090826e-01 4.987577676308450197e-04 7.626578558207241024e-04
4.075999999999999871e-04 3.823564017794535141e-01 5.381334366106255759e-04 7.813048116943254948e-04
4.679999999999999915e-04 4.390986251953180042e-01 5.832692638200615834e-04 8.096035963157804938e-04
5.341000000000000261e-04 5.012024644415256081e-01 6.346556894078133086e-04 8.452514814113673558e-04
6.059000000000000366e-04 5.686690698184251325e-01 6.930641302632923034e-04 8.862253587289389486e-04
7.661000000000000275e-04 7.192254882508629654e-01 8.328184776562496576e-04 9.702780530519144065e-04
1.262000000000000101e-03 1.185459127778160093e+00 1.338484980802662205e-03 1.198863597978450275e-03
1.894999999999999983e-03 1.780909071169781921e+00 2.123481960401060308e-03 1.437771491635827115e-03
2.673000000000000029e-03 2.513147344746868850e+00 3.261860252001994032e-03 1.671524566936786766e-03
3.605999999999999830e-03 3.391736073717691369e+00 4.828136641022434151e-03 1.893900408978071038e-03
4.709999999999999777e-03 4.431905410739045870e+00 6.903512974832482635e-03 2.096551352830673849e-03
7.496000000000000059e-03 7.058993649504918366e+00 1.289742191321638018e-02 2.466596387205546859e-03
1.119999999999999989e-02 1.055540362104863661e+01 2.212077014004794340e-02 2.809304433764861584e-03
1.600000000000000033e-02 1.509117352747679952e+01 3.559566804390756900e-02 3.132325055719984222e-03
2.206999999999999934e-02 2.083310616724802244e+01 5.457322122755020599e-02 3.477840948757840792e-03
2.947999999999999926e-02 2.785007348564149154e+01 8.049103664263126956e-02 3.909302116317729670e-03
4.268000000000000266e-02 4.036707211535221518e+01 1.353887601042819133e-01 4.862066536253286525e-03
6.219999999999999835e-02 5.891246509830522626e+01 2.419691225623893105e-01 6.630786177272363080e-03
7.316999999999999893e-02 6.935151695866235855e+01 3.161896974764099033e-01 7.588671314871411888e-03
7.595999999999999974e-02 7.200836722020332559e+01 3.371250777904805096e-01 8.170805199905812125e-03
7.685877551020407761e-02 7.286441676496529851e+01 3.442001134419865882e-01 8.358687579264304987e-03
7.775755102040816935e-02 7.372054996783667491e+01 3.514333998087774691e-01 8.538877450554484619e-03
7.865632653061224722e-02 7.457676765419573428e+01 3.588185351640018061e-01 8.711717754192951912e-03
7.955510204081632508e-02 7.543307055905971481e+01 3.663494091788181417e-01 8.877551430596312965e-03
8.045387755102040295e-02 7.628945933344033392e+01 3.740202030013907164e-01 9.036721420181177342e-03
8.135265306122449469e-02 7.714593455041664072e+01 3.818253893469698568e-01 9.189570663364145936e-03
8.225142857142857256e-02 7.800249671093989434e+01 3.897597325977409932e-01 9.336442100561823110e-03
8.315020408163265042e-02 7.885914624938652651e+01 3.978182889112452103e-01 9.477678672190818429e-03
8.404897959183672829e-02 7.971588353887169376e+01 4.059964063362793696e-01 9.613623318667731052e-03
8.494775510204082003e-02 8.057270889633730349e+01 4.142897249352892608e-01 9.744618980409177483e-03
8.584653061224489790e-02 8.142962258742501547e+01 4.226941769123595538e-01 9.871008597831748207e-03
8.674530612244897576e-02 8.228662483114806037e+01 4.312059867459958062e-01 9.993135111352057995e-03
8.764408163265305363e-02 8.314371580436929321e+01 4.398216713259712751e-01 1.011134146138671121e-02
8.854285714285714537e-02 8.400089564609783110e+01 4.485380400935918832e-01 1.022597058835231568e-02
8.944163265306122323e-02 8.485816446161251747e+01 4.573521951848005251e-01 1.033736543266546883e-02
9.034040816326530110e-02 8.571552232642086722e+01 4.662615315756127310e-01 1.044586893474278196e-02
9.123918367346939284e-02 8.657296929006209041e+01 4.752637372294333806e-01 1.055182403500085769e-02
9.213795918367347071e-02 8.743050537976158409e+01 4.843567932458660019e-01 1.065557367385630214e-02
9.303673469387754857e-02 8.828813060394455192e+01 4.935389740106820300e-01 1.075746079172572485e-02
9.393551020408162644e-02 8.914584495561479116e+01 5.028088473466640895e-01 1.085782832902572499e-02
9.483428571428570431e-02 9.000364841560616469e+01 5.121652746650910970e-01 1.095701922617290693e-02
9.573306122448979605e-02 9.086154095571170330e+01 5.216074111176750572e-01 1.105537642358388542e-02
9.663183673469387391e-02 9.171952254169721641e+01 5.311347057488027268e-01 1.115324286167525616e-02
9.753061224489795178e-02 9.257759313620340436e+01 5.407469016479781176e-01 1.125096148086362526e-02
9.842938775510204352e-02 9.343575270154339307e+01 5.504440361023942296e-01 1.134887522156560746e-02
9.932816326530612139e-02 9.429400120239833427e+01 5.602264407496027054e-01 1.144732702419779674e-02
1.002269387755101993e-01 9.515233860841777869e+01 5.700947417302841824e-01 1.154665982917680266e-02
1.011257142857142910e-01 9.601076489672769299e+01 5.800498598411482076e-01 1.164721657691923651e-02
1.020244897959183689e-01 9.686928005435079569e+01 5.900930106880273307e-01 1.174934020784169052e-02
1.029232653061224467e-01 9.772788408054263698e+01 6.002257048392569683e-01 1.185337366236077945e-02
1.038220408163265246e-01 9.858657698904778499e+01 6.104497479794558368e-01 1.195965988089310941e-02
1.047208163265306025e-01 9.944535881027924518e+01 6.207672410638517269e-01 1.206854180385528129e-02
1.056195918367346942e-01 1.003042295934240968e+02 6.311805804733191527e-01 1.218036237166390291e-02
1.065183673469387721e-01 1.011631894084787433e+02 6.416924581703161712e-01 1.229546452473557865e-02
1.074171428571428499e-01 1.020222383482172006e+02 6.523058618559347543e-01 1.241419120348691285e-02
1.083159183673469417e-01 1.028813765300945704e+02 6.630240751282918676e-01 1.253688534833451163e-02
1.092146938775510195e-01 1.037406040980882551e+02 6.738506776425137179e-01 1.266388989969498280e-02
1.101134693877550974e-01 1.045999212244807239e+02 6.847895452725827337e-01 1.279554779798492727e-02
1.110122448979591891e-01 1.054593281115848242e+02 6.958448502753310505e-01 1.293220198362095806e-02
1.119110204081632531e-01 1.063188249934144949e+02 7.070210614568837038e-01 1.307419539701966740e-02
1.128097959183673449e-01 1.071784121373035106e+02 7.183229443418738258e-01 1.322187097859767353e-02
1.137085714285714227e-01 1.080380898454737491e+02 7.297555613457548107e-01 1.337557166877157214e-02
1.146073469387755006e-01 1.088978584565552126e+02 7.413242719505673817e-01 1.353564040795797452e-02
1.155061224489795924e-01 1.097577183470602478e+02 7.530347328845142796e-01 1.370242013657349024e-02
1.164048979591836702e-01 1.106176699328123902e+02 7.648928983057202702e-01 1.387625379503471153e-02
1.173036734693877481e-01 1.114777136703332019e+02 7.769050199905656040e-01 1.405748432375825488e-02
1.182024489795918398e-01 1.123378500581880672e+02 7.890776475269875023e-01 1.424645466316071946e-02
1.191012244897959177e-01 1.131980796382921568e+02 8.014176285131610067e-01 1.444350775365871309e-02
1.199999999999999956e-01 1.140584029971787743e+02 8.139321087619815209e-01 1.464898653566884361e-02
1.219714559217538324e-01 1.159458470367298162e+02 8.420296078558606734e-01 1.512403197345391255e-02
1.239429118435076693e-01 1.178337526002314206e+02 8.710427505179421104e-01 1.561171581419243046e-02
1.259143677652614923e-01 1.197221271066729997e+02 9.009962167118190646e-01 1.611230487638315792e-02
1.278858236870153431e-01 1.216109781333856290e+02 9.319152301042761266e-01 1.662607461975053325e-02
1.298572796087691661e-01 1.235003134172365264e+02 9.638255757562728121e-01 1.715330906225597321e-02
1.318287355305230169e-01 1.253901408560181210e+02 9.967536177207213521e-01 1.769430069100834391e-02
1.338001914522768399e-01 1.272804685100169451e+02 1.030726316538147280e+00 1.824935036748886671e-02
1.357716473740306906e-01 1.291713046037476147e+02 1.065771246622155610e+00 1.881876722748221722e-02
1.377431032957845136e-01 1.310626575278361940e+02 1.101916613527353483e+00 1.940286857607497611e-02
1.397145592175383644e-01 1.329545358410432527e+02 1.139191271093113356e+00 2.000197977805893632e-02
1.416860151392921874e-01 1.348469482724136981e+02 1.177624738457197617e+00 2.061643414405591943e-02
1.436574710610460381e-01 1.367399037235421133e+02 1.217247216933921017e+00 2.124657281266079112e-02
1.456289269827998611e-01 1.386334112709444639e+02 1.258089606752086365e+00 2.189274462888097725e-02
1.476003829045537119e-01 1.405274801685279442e+02 1.300183523648522410e+00 2.255530601913550634e-02
1.495718388263075349e-01 1.424221198501482775e+02 1.343561315313550386e+00 2.323462086306163701e-02
1.515432947480613857e-01 1.443173399322487001e+02 1.388256077685243950e+00 2.393106036236413228e-02
1.535147506698152087e-01 1.462131502165721315e+02 1.434301671089796448e+00 2.464500290693054374e-02
1.554862065915690594e-01 1.481095606929411304e+02 1.481732736225808145e+00 2.537683393842507518e-02
1.574576625133228824e-01 1.500065815420973934e+02 1.530584709990707282e+00 2.612694581156398826e-02
1.594291184350767332e-01 1.519042231385969046e+02 1.580893841147989809e+00 2.689573765326700935e-02
1.614005743568305562e-01 1.538024960537546804e+02 1.632697205834325649e+00 2.768361521987107096e-02
1.633720302785844070e-01 1.557014110586336528e+02 1.686032722906024128e+00 2.849099075258671940e-02
1.653434862003382300e-01 1.576009791270734866e+02 1.740939169124689379e+00 2.931828283136977617e-02
1.673149421220920807e-01 1.595012114387556608e+02 1.797456194182315725e+00 3.016591622737745115e-02
1.692863980438459037e-01 1.614021193822995315e+02 1.855624335566389504e+00 3.103432175417120131e-02
1.712578539655997267e-01 1.633037145583865879e+02 1.915485033265969861e+00 3.192393611782616547e-02
1.732293098873535775e-01 1.652060087829092367e+02 1.977080644320021063e+00 3.283520176610223162e-02
1.752007658091074283e-01 1.671090140901407040e+02 2.040454457209643468e+00 3.376856673682940985e-02
1.771722217308612513e-01 1.690127427359236378e+02 2.105650706096175551e+00 3.472448450565687739e-02
1.791436776526150743e-01 1.709172072008744863e+02 2.172714584907470936e+00 3.570341383331419871e-02
1.811151335743689250e-01 1.728224201936002089e+02 2.241692261274977227e+00 3.670581861252975725e-02
1.830865894961227758e-01 1.747283946539266708e+02 2.312630890324573141e+00 3.773216771475178949e-02
1.850580454178765988e-01 1.766351437561350792e+02 2.385578628324454442e+00 3.878293483681570508e-02
1.870295013396304218e-01 1.785426809122061513e+02 2.460584646193659353e+00 3.985859834770091176e-02
1.890009572613842725e-01 1.804510197750674365e+02 2.537699142875152969e+00 4.095964113552059971e-02
1.909724131831381233e-01 1.823601742418460674e+02 2.616973358577716624e+00 4.208655045488754465e-02
1.929438691048919463e-01 1.842701584571207718e+02 2.698459587891208322e+00 4.323981777479996014e-02
1.949153250266457693e-01 1.861809868161772670e+02 2.782211192780074782e+00 4.441993862719189473e-02
1.968867809483996201e-01 1.880926739682597031e+02 2.868282615460320706e+00 4.562741245629368947e-02
1.988582368701534708e-01 1.900052348198225900e+02 2.956729391165471288e+00 4.686274246894959333e-02
2.008296927919072938e-01 1.919186845377784607e+02 3.047608160807401934e+00 4.812643548604078614e-02
2.028011487136611168e-01 1.938330385527429485e+02 3.140976683538220904e+00 4.941900179516386243e-02
2.047726046354149676e-01 1.957483125622735258e+02 3.236893849219736996e+00 5.074095500471720310e-02
2.067440605571688184e-01 1.976645225341050605e+02 3.335419690807388537e+00 5.209281189954860503e-02
2.087155164789226414e-01 1.995816847093785498e+02 3.436615396655857690e+00 5.347509229832182048e-02
2.106869724006764644e-01 2.014998156058641143e+02 3.540543322753934241e+00 5.488831891275961633e-02
2.126584283224303151e-01 2.034189320211773975e+02 3.647267004896550091e+00 5.633301720892580633e-02
2.146298842441841381e-01 2.053390510359892289e+02 3.756851170802272044e+00 5.780971527070938309e-02
2.166013401659379889e-01 2.072601900172286378e+02 3.869361752184931724e+00 5.931894366567864313e-02
2.938135577135719267e-01 2.838724932200660760e+02 1.287126279700147791e+01 1.736210230829756396e-01
3.710257752612058368e-01 3.639678443349928330e+02 3.148844857439191713e+01 2.879231025002726430e-01
4.482379928088398024e-01 4.489564693603795149e+02 6.100250981289777030e+01 4.022251819175696741e-01
5.254502103564736570e-01 5.400066095908778152e+02 1.030743189391715191e+02 5.165272613348664832e-01
6.026624279041076226e-01 6.382086173522958461e+02 1.597244143963004888e+02 6.308293407521635698e-01
6.798746454517415883e-01 7.443818886410182358e+02 2.211136255614632944e+02 5.315905197047954278e-01
7.570868629993754428e-01 8.571139485866528958e+02 2.745814994570644103e+02 4.214890028131214605e-01
8.342990805470094084e-01 9.747659628984287110e+02 3.175257016126594181e+02 3.113874859214472712e-01
9.115112980946433741e-01 1.096614957217582969e+03 3.810790578058169444e+02 7.179325118792251326e-01
9.887235156422772286e-01 1.225641376045230800e+03 4.805944043531103489e+02 8.192844514968988801e-01
1.065935733189911083e+00 1.363077704022098033e+03 5.864653169616835839e+02 7.263732269556553156e-01
1.143147950737545049e+00 1.507914696373402876e+03 6.846595480771929942e+02 6.334620024144115291e-01
1.220360168285179014e+00 1.659120247066965476e+03 7.773764042026191419e+02 5.943393919950615834e-01
1.297572385832812758e+00 1.816161820420496952e+03 8.709495781072404270e+02 5.974139400033657843e-01
1.374784603380446724e+00 1.978888138769986881e+03 9.684112066945756396e+02 6.004884880116700963e-01
1.451996820928080689e+00 2.147197466650151000e+03 1.069734899906239207e+03 6.035630360199744082e-01
1.529209038475714655e+00 2.320997627877927698e+03 1.174899131511284395e+03 6.066375840282786092e-01
1.606421256023348620e+00 2.500204785045093558e+03 1.283886610459426038e+03 6.097121320365829211e-01
1.683633473570982364e+00 2.684742426523353515e+03 1.396683761316495293e+03 6.127866800448872331e-01
1.760845691118616330e+00 2.874540517766013181e+03 1.513280290772679336e+03 6.158612280531914340e-01
1.838057908666250295e+00 3.069534784204380685e+03 1.633668822867236031e+03 6.189357760614957460e-01
1.915270126213884261e+00 3.269666100655120317e+03 1.757844589656581093e+03 6.220103240698000580e-01
1.992482343761518226e+00 3.474879967760303771e+03 1.885805167048248450e+03 6.250848720781043699e-01
2.069694561309152192e+00 3.685126060164576302e+03 2.017550247752267751e+03 6.281594200864085709e-01
