# density  energy_density  pressure   sound_speed_squared  [All in nuclear units]
2.720000000000000022e-14 2.529924618736292620e-11 1.061056609100270887e-19 3.766610435412189122e-08
1.269999999999999890e-13 1.181251617980081254e-10 4.870113551826584858e-18 6.497781477172163475e-08
6.929999999999999754e-13 6.445728594625782745e-10 1.018299070687946017e-16 3.033770597342807186e-07
6.295000000000000137e-12 5.855111460395753757e-09 5.487150723824490656e-15 1.763710043904196507e-06
1.581000000000000150e-11 1.470523320212576141e-08 2.904239460150760759e-14 3.559434472327477622e-06
3.971999999999999958e-11 3.694456170323160790e-08 1.439340266754906811e-13 6.772854871245677111e-06
9.975999999999999982e-11 9.278976412613005154e-08 6.812143616221268841e-13 1.246890511177539320e-05
2.505999999999999928e-10 2.330928829758143313e-07 3.107749196951638608e-12 2.212095130576091967e-05
6.294000000000000186e-10 5.854398883216247602e-07 1.363250409771533549e-11 3.761981047239428883e-05
1.581000000000000021e-09 1.470619631082054101e-06 5.726014178088476303e-11 6.095350986710739404e-05
3.971999999999999932e-09 3.694861084648016046e-06 2.210019573374265380e-10 8.628023653304385055e-05
5.000000000000000105e-09 4.651201787816927976e-06 3.071485916280120014e-10 9.387863480799757518e-05
9.975999999999999465e-09 9.280587964640925786e-06 8.385361004129998845e-10 1.356922228656245837e-04
1.989999999999999952e-08 1.851419242998081003e-05 2.287763168863418088e-09 1.782101978513718314e-04
3.972999999999999908e-08 3.696699295748789187e-05 6.061583099087538954e-09 2.308134738384234820e-04
7.925999999999999637e-08 7.375765469301719828e-05 1.575347858094044765e-08 2.960532096713864875e-04
1.580999999999999930e-07 1.471491184379128891e-04 3.910429618672550719e-08 3.402859755131850544e-04
1.991000000000000027e-07 1.853209783927820692e-04 5.252045687899177454e-08 3.626488188833278743e-04
3.155999999999999938e-07 2.938002528823880299e-04 9.730770378831954314e-08 4.630767356912104081e-04
5.000999999999999849e-07 4.656344063839075714e-04 1.837494945860225819e-07 5.430301232045120323e-04
6.295999999999999732e-07 5.862651417037388971e-04 2.503103884558263872e-07 5.605192962670089638e-04
9.666999999999999941e-07 9.003386739730535665e-04 4.324450868778576936e-07 5.993081670211623108e-04
1.531999999999999901e-06 1.427170885631398036e-03 7.780217275717420968e-07 7.125938556504039095e-04
2.506999999999999883e-06 2.336134972129507662e-03 1.471005394641589826e-06 8.121876172121876309e-04
3.974000000000000407e-06 3.704315759716615697e-03 2.695705763844323844e-06 9.780674166779417152e-04
4.830000000000000343e-06 4.502887798316278223e-03 3.503988717694660908e-06 1.046253037768318664e-03
6.080999999999999885e-06 5.670217999231269741e-03 4.731126407333307547e-06 1.056224360839501646e-03
7.930000000000000308e-06 7.396012414119570652e-03 6.599662989063778187e-06 1.109203753630785610e-03
9.982000000000000313e-06 9.311815711689977113e-03 8.879881089227186733e-06 1.271216815433141075e-03
1.256999999999999993e-05 1.172874412604260098e-02 1.207676739913533738e-05 1.374195438212825332e-03
1.521999999999999997e-05 1.420427250933824909e-02 1.547541302213394990e-05 1.371610497379100249e-03
1.991000000000000080e-05 1.858690797761085312e-02 2.160710455847765458e-05 1.426578142835871997e-03
2.506999999999999883e-05 2.341050104039446925e-02 2.908031724375689851e-05 1.672007475975408053e-03
2.790999999999999875e-05 2.606604784714952258e-02 3.357009132255487721e-05 1.709425557744154774e-03
3.806999999999999973e-05 3.556967988784798945e-02 4.986781576435106434e-05 1.720407281314112165e-03
5.063000000000000145e-05 4.732434580343149871e-02 7.073400252905581275e-05 1.829889149838781265e-03
6.592000000000000583e-05 6.164112392498975052e-02 9.765037643900635188e-05 1.930242980462695823e-03
8.433000000000000066e-05 7.888776783401378612e-02 1.317235490470395893e-04 2.021055815200022837e-03
1.062000000000000064e-04 9.938561165478684845e-02 1.740088341640037047e-04 2.104789529260958983e-03
1.321000000000000126e-04 1.236720406455826121e-01 2.260189757651373944e-04 2.178291718403657477e-03
1.623999999999999901e-04 1.520974545104751274e-01 2.888169908545388338e-04 2.240170365918073281e-03
1.689999999999999879e-04 1.582907717069566844e-01 3.027354772999506964e-04 2.254509350360745651e-03
1.758999999999999930e-04 1.647661861691531171e-01 3.173785841705756782e-04 2.268169273277113179e-03
1.830000000000000029e-04 1.714298948183871907e-01 3.325196584577469103e-04 2.276170334580628063e-03
1.901999999999999882e-04 1.781880600978280049e-01 3.479577791899843742e-04 2.292561569242367037e-03
1.977000000000000079e-04 1.852284385240466902e-01 3.641242634600037713e-04 2.299943765467868384e-03
2.054000000000000053e-04 1.924572004474696396e-01 3.808304060475003897e-04 2.322187632288155723e-03
2.079000000000000119e-04 1.948043378760714872e-01 3.864137987380476553e-04 2.435429768083530178e-03
2.081999999999999921e-04 1.950859988578999005e-01 3.870314100985603909e-04 1.950065624557156818e-03
2.090999999999999868e-04 1.959309855029948977e-01 3.881261957135444685e-04 6.411875526909013856e-04
2.159999999999999919e-04 2.024093317906446865e-01 3.940874488768042125e-04 1.199166870571831411e-03
2.231000000000000019e-04 2.090756740932291913e-01 4.013938420547467825e-04 9.928616047829054436e-04
2.311000000000000066e-04 2.165873044433437034e-01 4.085241694843774404e-04 9.056166966301716637e-04
2.401000000000000085e-04 2.250381721984245909e-01 4.159700687886608468e-04 8.565463878902855599e-04
2.500000000000000052e-04 2.343344406330727658e-01 4.237602369176299592e-04 8.194318812157330018e-04
2.642999999999999733e-04 2.477629128650125634e-01 4.345596643180389446e-04 7.890063723638815647e-04
3.052999999999999941e-04 2.862671839140227270e-01 4.644058706720978241e-04 7.612775562167708662e-04
3.533000000000000224e-04 3.313503829113090826e-01 4.987577676308450197e-04 7.626578558207241024e-04
4.075999999999999871e-04 3.823564017794535141e-01 5.381334366106255759e-04 7.813048116943254948e-04
4.679999999999999915e-04 4.390986251953180042e-01 5.832692638200615834e-04 8.096035963157804938e-04
5.341000000000000261e-04 5.012024644415256081e-01 6.346556894078133086e-04 8.452514814113673558e-04
6.059000000000000366e-04 5.686690698184251325e-01 6.930641302632923034e-04 8.862253587289389486e-04
7.661000000000000275e-04 7.192254882508629654e-01 8.328184776562496576e-04 9.702780530519144065e-04
1.262000000000000101e-03 1.185459127778160093e+00 1.338484980802662205e-03 1.198863597978450275e-03
1.894999999999999983e-03 1.780909071169781921e+00 2.123481960401060308e-03 1.437771491635827115e-03
2.673000000000000029e-03 2.513147344746868850e+00 3.261860252001994032e-03 1.671524566936786766e-03
3.605999999999999830e-03 3.391736073717691369e+00 4.828136641022434151e-03 1.893900408978071038e-03
4.709999999999999777e-03 4.431905410739045870e+00 6.903512974832482635e-03 2.096551352830673849e-03
7.496000000000000059e-03 7.058993649504918366e+00 1.289742191321638018e-02 2.466596387205546859e-03
1.119999999999999989e-02 1.055540362104863661e+01 2.212077014004794340e-02 2.809304433764861584e-03
1.600000000000000033e-02 1.509117352747679952e+01 3.559566804390756900e-02 3.132325055719984222e-03
2.206999999999999934e-02 2.083310616724802244e+01 5.457322122755020599e-02 3.477840948757840792e-03
2.947999999999999926e-02 2.785007348564149154e+01 8.049103664263126956e-02 3.909302116317729670e-03
4.268000000000000266e-02 4.036707211535221518e+01 1.353887601042819133e-01 4.862066536253286525e-03
6.219999999999999835e-02 5.891246509830522626e+01 2.419691225623893105e-01 6.630786177272363080e-03
7.316999999999999893e-02 6.935151695866235855e+01 3.161896974764099033e-01 7.588671314871411888e-03
7.595999999999999974e-02 7.200836722020332559e+01 3.371250777904805096e-01 8.170805199905812125e-03
7.685877551020407761e-02 7.286441677076632573e+01 3.442011061819983953e-01 8.361006704465672248e-03
7.775755102040816935e-02 7.372055000655741708e+01 3.514380544139033558e-01 8.545111906791894377e-03
7.865632653061224722e-02 7.457676779143966428e+01 3.588309012755137584e-01 8.723493985362144876e-03
7.955510204081632508e-02 7.543307091396185626e+01 3.663749434180619269e-01 8.896526118654093582e-03
8.045387755102040295e-02 7.628946009350337931e+01 3.740657954565657084e-01 9.064581485145420739e-03
8.135265306122449469e-02 7.714593598614528958e+01 3.818993900811329945e-01 9.228033263313789245e-03
8.225142857142857256e-02 7.800249919028384227e+01 3.898719781766044057e-01 9.387254631636867200e-03
8.315020408163265042e-02 7.885915025199926731e+01 3.979801289495540351e-01 9.542618768592329645e-03
8.404897959183672829e-02 7.971588967019435756e+01 4.062207300617662886e-01 9.694498852657846416e-03
8.494775510204082003e-02 8.057271790151449409e+01 4.145909877694072820e-01 9.843268062311092553e-03
8.584653061224489790e-02 8.142963536506084665e+01 4.230884270671950720e-01 9.989299576029729219e-03
8.674530612244897576e-02 8.228664244690783391e+01 4.317108918369594872e-01 1.013296657229142798e-02
8.764408163265305363e-02 8.314373950443466299e+01 4.404565450000558213e-01 1.027464222957386736e-02
8.854285714285714537e-02 8.400092687048123707e+01 4.493238686731731435e-01 1.041469972635471371e-02
8.944163265306122323e-02 8.485820485733634655e+01 4.583116643271431534e-01 1.055351224111163513e-02
9.034040816326530110e-02 8.571557376056739486e+01 4.674190529484211765e-01 1.069145295232230147e-02
9.123918367346939284e-02 8.657303386269965984e+01 4.766454752029673503e-01 1.082889503846438950e-02
9.213795918367347071e-02 8.743058543675135752e+01 4.859906916023137291e-01 1.096621167801556385e-02
9.303673469387754857e-02 8.828822874963319123e+01 4.954547826716566572e-01 1.110377604945349608e-02
9.393551020408162644e-02 8.914596406541787132e+01 5.050381491198577821e-01 1.124196133125585952e-02
9.483428571428570431e-02 9.000379164848600055e+01 5.147415120112889264e-01 1.138114070190031878e-02
9.573306122448979605e-02 9.086171176655436454e+01 5.245659129394946163e-01 1.152168733986455411e-02
9.663183673469387391e-02 9.171972469359242552e+01 5.345127142026898648e-01 1.166397442362622668e-02
9.753061224489795178e-02 9.257783071263133934e+01 5.445835989811477207e-01 1.180837513166301152e-02
9.842938775510204352e-02 9.343603011847200435e+01 5.547805715165664564e-01 1.195526264245258020e-02
9.932816326530612139e-02 9.429432322029461488e+01 5.651059572935414055e-01 1.210501013447259737e-02
1.002269387755101993e-01 9.515271034417663998e+01 5.755624032232996568e-01 1.225799078620073805e-02
1.011257142857142910e-01 9.601119183552104630e+01 5.861528778298821241e-01 1.241457777611467556e-02
1.020244897959183689e-01 9.686976806140067708e+01 5.968806714389899293e-01 1.257514428269207105e-02
1.029232653061224467e-01 9.772843941282135916e+01 6.077493963697389034e-01 1.274006348441060130e-02
1.038220408163265246e-01 9.858720630690746134e+01 6.187629871295875494e-01 1.290970855974794135e-02
1.047208163265306025e-01 9.944606918901399695e+01 6.299257006127334524e-01 1.308445268718174889e-02
1.056195918367346942e-01 1.003050285347670894e+02 6.412421163022921089e-01 1.326466904518970938e-02
1.065183673469387721e-01 1.011640848520377176e+02 6.527171364765946837e-01 1.345073081224948050e-02
1.074171428571428499e-01 1.020232386828497795e+02 6.643559864199650722e-01 1.364301116683874077e-02
1.083159183673469417e-01 1.028824906052264936e+02 6.761642146383494145e-01 1.384188328743515828e-02
1.092146938775510195e-01 1.037418412349772865e+02 6.881476930801965208e-01 1.404772035251640287e-02
1.101134693877550974e-01 1.046012912274275664e+02 7.003126173630028761e-01 1.426089554056014438e-02
1.110122448979591891e-01 1.054608412790936995e+02 7.126655070059505492e-01 1.448178203004405612e-02
1.119110204081632531e-01 1.063204921293065297e+02 7.252132056690848705e-01 1.471075299944580445e-02
1.128097959183673449e-01 1.071802445617834394e+02 7.379628813994960623e-01 1.494818162724306614e-02
1.137085714285714227e-01 1.080400994061530042e+02 7.509220268849745583e-01 1.519444109191350235e-02
1.146073469387755006e-01 1.089000575394339307e+02 7.640984597156377234e-01 1.544990457193479334e-02
1.155061224489795924e-01 1.097601198874684485e+02 7.775003226540248003e-01 1.571494524578460547e-02
1.164048979591836702e-01 1.106202874263140643e+02 7.911360839141783341e-01 1.598993629194060684e-02
1.173036734693877481e-01 1.114805611835948724e+02 8.050145374502414297e-01 1.627525088888047075e-02
1.182024489795918398e-01 1.123409422398123070e+02 8.191448032551073011e-01 1.657126221508187225e-02
1.191012244897959177e-01 1.132014317296201966e+02 8.335363276696730050e-01 1.687834344902247249e-02
1.199999999999999956e-01 1.140620308430619048e+02 8.481988837032610196e-01 1.719686776917994653e-02
1.211594683889462010e-01 1.151724137408783122e+02 8.675303568585094327e-01 1.762257272819976045e-02
1.223189367778924064e-01 1.162829839287363711e+02 8.873420050550558935e-01 1.805573069850353873e-02
1.234784051668386118e-01 1.173937442231883068e+02 9.076423416862755555e-01 1.849638229910412560e-02
1.246378735557848172e-01 1.185046974680844443e+02 9.284399338489164322e-01 1.894456835137391451e-02
1.257973419447310226e-01 1.196158465343125954e+02 9.497434027787489130e-01 1.940032989390449297e-02
1.269568103336772280e-01 1.207271943195519981e+02 9.715614243055733512e-01 1.986370819690685963e-02
1.281162787226234334e-01 1.218387437480393771e+02 9.939027293271305297e-01 2.033474477616175821e-02
1.292757471115696388e-01 1.229504977703491022e+02 1.016776104301471806e+00 2.081348140653561940e-02
1.304352155005158442e-01 1.240624593631846864e+02 1.040190391757362942e+00 2.129996013507031924e-02
1.315946838894620496e-01 1.251746315291827614e+02 1.064154490822307064e+00 2.179422329366057301e-02
1.327541522784082551e-01 1.262870172967290472e+02 1.088677357767787734e+00 2.229631351132694075e-02
1.339136206673544605e-01 1.273996197197844680e+02 1.113768006571340674e+00 2.280627372609613998e-02
1.350730890563006659e-01 1.285124418777237452e+02 1.139435509495082322e+00 2.332414719649790816e-02
1.362325574452468713e-01 1.296254868751832987e+02 1.165688997680327077e+00 2.384997751268541286e-02
1.373920258341930767e-01 1.307387578419199485e+02 1.192537661757940182e+00 2.438380860719100221e-02
1.385514942231392821e-01 1.318522579326796915e+02 1.219990752474083617e+00 2.492568476532224658e-02
1.397109626120854875e-01 1.329659903270763266e+02 1.248057581331019739e+00 2.547565063520872489e-02
1.408704310010316929e-01 1.340799582294785637e+02 1.276747521242650008e+00 2.603375123750450645e-02
1.420298993899778983e-01 1.351941648689076203e+02 1.306070007204472194e+00 2.660003197475495351e-02
1.431893677789241037e-01 1.363086134989428047e+02 1.336034536977651177e+00 2.717453864043448131e-02
1.443488361678703091e-01 1.374233073976357105e+02 1.366650671786904248e+00 2.775731742766039678e-02
1.455083045568165145e-01 1.385382498674335920e+02 1.397928037031910931e+00 2.834841493758996633e-02
1.466677729457627199e-01 1.396534442351101291e+02 1.429876323011964878e+00 2.894787818750643726e-02
1.478272413347089254e-01 1.407688938517044335e+02 1.462505285663592947e+00 2.955575461859889785e-02
1.489867097236551585e-01 1.418846020924680147e+02 1.495824747310872560e+00 3.017209210344135376e-02
1.501461781126013639e-01 1.430005723568185942e+02 1.529844597428182906e+00 3.079693895317661342e-02
1.513056465015475693e-01 1.441168080683024755e+02 1.564574793415144605e+00 3.143034392440867408e-02
1.524651148904937747e-01 1.452333126745629102e+02 1.600025361383484723e+00 3.207235622580896506e-02
1.536245832794399802e-01 1.463500896473159116e+02 1.636206396955593112e+00 3.272302552444023710e-02
1.547840516683861856e-01 1.474671424823330881e+02 1.673128066074530684e+00 3.338240195180219166e-02
1.559435200573323910e-01 1.485844746994305581e+02 1.710800605825254728e+00 3.405053610960308286e-02
1.571029884462785964e-01 1.497020898424649431e+02 1.749234325266836532e+00 3.472747907526015088e-02
1.582624568352248018e-01 1.508199914793349024e+02 1.788439606275447291e+00 3.541328240713347009e-02
1.594219252241710072e-01 1.519381832019900571e+02 1.828426904397895125e+00 3.610799814949538361e-02
1.605813936131172126e-01 1.530566686264444343e+02 1.869206749715499605e+00 3.681167883723938244e-02
1.617408620020634180e-01 1.541754513927968162e+02 1.910789747718094844e+00 3.752437750033128794e-02
1.629003303910096234e-01 1.552945351652565193e+02 1.953186580187955546e+00 3.824614766800512461e-02
1.640597987799558288e-01 1.564139236321747148e+02 1.996408006093447041e+00 3.897704337270718744e-02
1.652192671689020342e-01 1.575336205060810641e+02 2.040464862492199050e+00 3.971711915378952490e-02
1.663787355578482396e-01 1.586536295237262664e+02 2.085368065443611307e+00 4.046643006095696632e-02
1.675382039467944451e-01 1.597739544461289256e+02 2.131128610930499434e+00 4.122503165746813081e-02
1.686976723357406505e-01 1.608945990586284438e+02 2.177757575789696531e+00 4.199298002309398425e-02
1.698571407246868559e-01 1.620155671709420915e+02 2.225266118651421543e+00 4.277033175683512406e-02
1.710166091136330613e-01 1.631368626172279335e+02 2.273665480887238743e+00 4.355714397940021326e-02
1.721760775025792667e-01 1.642584892561511936e+02 2.322966987566426500e+00 4.435347433544673673e-02
1.733355458915254721e-01 1.653804509709561046e+02 2.373182048420580781e+00 4.515938099558668845e-02
1.744950142804716775e-01 1.665027516695431302e+02 2.424322158816280659e+00 4.597492265815774498e-02
1.756544826694178829e-01 1.676253952845484037e+02 2.476398900735645281e+00 4.680015855076242320e-02
1.768139510583640883e-01 1.687483857734299022e+02 2.529423943764612659e+00 4.763514843157570094e-02
2.548381561388056160e-01 2.456756651447214210e+02 9.860167776821434416e+00 1.413787561539144311e-01
3.328623612192471715e-01 3.259226992524404523e+02 2.506278296902743818e+01 2.351223638762532098e-01
4.108865662996886714e-01 4.106751576659369221e+02 4.909080654454685089e+01 3.288659715985918774e-01
4.889107713801302824e-01 5.008632747084071184e+02 8.314037639363478149e+01 4.226095793209307394e-01
5.669349764605717823e-01 5.972832996892911979e+02 1.275028752085090389e+02 4.946227932614728484e-01
6.449591815410132822e-01 7.004776784756953703e+02 1.819696723323042988e+02 5.582508557572151142e-01
7.229833866214548932e-01 8.108806633908604908e+02 2.472755876683698091e+02 6.218789182529576021e-01
8.010075917018963931e-01 9.289456919492184852e+02 3.246367124420233949e+02 6.855069807486998679e-01
8.790317967823378931e-01 1.055161433958502812e+03 4.153812029412984543e+02 7.491350432444421337e-01
9.570560018627795040e-01 1.190052748613594758e+03 5.209590205947627055e+02 8.127631057401846215e-01
1.035080206943221004e+00 1.334166990384575683e+03 6.403480151452854443e+02 8.425576447472165054e-01
1.113104412023662615e+00 1.487732283492312263e+03 7.716686625591221400e+02 8.665262417695287489e-01
1.191128617104104226e+00 1.650917781787374679e+03 9.151271751990856274e+02 8.904948387918408814e-01
1.269152822184545837e+00 1.823908318134247793e+03 1.071351681193138347e+03 9.144634358141530139e-01
1.347177027264987226e+00 2.006905497310016926e+03 1.240999168313117480e+03 9.384320328364651465e-01
1.425201232345428837e+00 2.200121624931860424e+03 1.421871084368103311e+03 9.340713665067125193e-01
1.503225437425870448e+00 2.403462140031961098e+03 1.605789886062925007e+03 8.775689149168710568e-01
1.581249642506311837e+00 2.616269548849984858e+03 1.786283140164327961e+03 8.210664633270297053e-01
1.659273847586753448e+00 2.837866308477492566e+03 1.961744295366669803e+03 7.645640117371881317e-01
1.737298052667195059e+00 3.067565620972179659e+03 2.130674318077413318e+03 7.080615601473465581e-01
1.815322257747636447e+00 3.304677675962842841e+03 2.291688132095816400e+03 6.515591085575052066e-01
1.893346462828078058e+00 3.548515042244684537e+03 2.443518749305595065e+03 5.950566569676636330e-01
1.971370667908519669e+00 3.798397296262973214e+03 2.585019431547135355e+03 5.385542053778221705e-01
2.049394872988961058e+00 4.053654967115940053e+03 2.715164184633378682e+03 4.820517537879807635e-01
