# density  energy_density  pressure   sound_speed_squared  [All in nuclear units]
2.720000000000000022e-14 2.529924618736292620e-11 1.061056609100270887e-19 3.766610435412189122e-08
1.269999999999999890e-13 1.181251617980081254e-10 4.870113551826584858e-18 6.497781477172163475e-08
6.929999999999999754e-13 6.445728594625782745e-10 1.018299070687946017e-16 3.033770597342807186e-07
6.295000000000000137e-12 5.855111460395753757e-09 5.487150723824490656e-15 1.763710043904196507e-06
1.581000000000000150e-11 1.470523320212576141e-08 2.904239460150760759e-14 3.559434472327477622e-06
3.971999999999999958e-11 3.694456170323160790e-08 1.439340266754906811e-13 6.772854871245677111e-06
9.975999999999999982e-11 9.278976412613005154e-08 6.812143616221268841e-13 1.246890511177539320e-05
2.505999999999999928e-10 2.330928829758143313e-07 3.107749196951638608e-12 2.212095130576091967e-05
6.294000000000000186e-10 5.854398883216247602e-07 1.363250409771533549e-11 3.761981047239428883e-05
1.581000000000000021e-09 1.470619631082054101e-06 5.726014178088476303e-11 6.095350986710739404e-05
3.971999999999999932e-09 3.694861084648016046e-06 2.210019573374265380e-10 8.628023653304385055e-05
5.000000000000000105e-09 4.651201787816927976e-06 3.071485916280120014e-10 9.387863480799757518e-05
9.975999999999999465e-09 9.280587964640925786e-06 8.385361004129998845e-10 1.356922228656245837e-04
1.989999999999999952e-08 1.851419242998081003e-05 2.287763168863418088e-09 1.782101978513718314e-04
3.972999999999999908e-08 3.696699295748789187e-05 6.061583099087538954e-09 2.308134738384234820e-04
7.925999999999999637e-08 7.375765469301719828e-05 1.575347858094044765e-08 2.960532096713864875e-04
1.580999999999999930e-07 1.471491184379128891e-04 3.910429618672550719e-08 3.402859755131850544e-04
1.991000000000000027e-07 1.853209783927820692e-04 5.252045687899177454e-08 3.626488188833278743e-04
3.155999999999999938e-07 2.938002528823880299e-04 9.730770378831954314e-08 4.630767356912104081e-04
5.000999999999999849e-07 4.656344063839075714e-04 1.837494945860225819e-07 5.430301232045120323e-04
6.295999999999999732e-07 5.862651417037388971e-04 2.503103884558263872e-07 5.605192962670089638e-04
9.666999999999999941e-07 9.003386739730535665e-04 4.324450868778576936e-07 5.993081670211623108e-04
1.531999999999999901e-06 1.427170885631398036e-03 7.780217275717420968e-07 7.125938556504039095e-04
2.506999999999999883e-06 2.336134972129507662e-03 1.471005394641589826e-06 8.121876172121876309e-04
3.974000000000000407e-06 3.704315759716615697e-03 2.695705763844323844e-06 9.780674166779417152e-04
4.830000000000000343e-06 4.502887798316278223e-03 3.503988717694660908e-06 1.046253037768318664e-03
6.080999999999999885e-06 5.670217999231269741e-03 4.731126407333307547e-06 1.056224360839501646e-03
7.930000000000000308e-06 7.396012414119570652e-03 6.599662989063778187e-06 1.109203753630785610e-03
9.982000000000000313e-06 9.311815711689977113e-03 8.879881089227186733e-06 1.271216815433141075e-03
1.256999999999999993e-05 1.172874412604260098e-02 1.207676739913533738e-05 1.374195438212825332e-03
1.521999999999999997e-05 1.420427250933824909e-02 1.547541302213394990e-05 1.371610497379100249e-03
1.991000000000000080e-05 1.858690797761085312e-02 2.160710455847765458e-05 1.426578142835871997e-03
2.506999999999999883e-05 2.341050104039446925e-02 2.908031724375689851e-05 1.672007475975408053e-03
2.790999999999999875e-05 2.606604784714952258e-02 3.357009132255487721e-05 1.709425557744154774e-03
3.806999999999999973e-05 3.556967988784798945e-02 4.986781576435106434e-05 1.720407281314112165e-03
5.063000000000000145e-05 4.732434580343149871e-02 7.073400252905581275e-05 1.829889149838781265e-03
6.592000000000000583e-05 6.164112392498975052e-02 9.765037643900635188e-05 1.930242980462695823e-03
8.433000000000000066e-05 7.888776783401378612e-02 1.317235490470395893e-04 2.021055815200022837e-03
1.062000000000000064e-04 9.938561165478684845e-02 1.740088341640037047e-04 2.104789529260958983e-03
1.321000000000000126e-04 1.236720406455826121e-01 2.260189757651373944e-04 2.178291718403657477e-03
1.623999999999999901e-04 1.520974545104751274e-01 2.888169908545388338e-04 2.240170365918073281e-03
1.689999999999999879e-04 1.582907717069566844e-01 3.027354772999506964e-04 2.254509350360745651e-03
1.758999999999999930e-04 1.647661861691531171e-01 3.173785841705756782e-04 2.268169273277113179e-03
1.830000000000000029e-04 1.714298948183871907e-01 3.325196584577469103e-04 2.276170334580628063e-03
1.901999999999999882e-04 1.781880600978280049e-01 3.479577791899843742e-04 2.292561569242367037e-03
1.977000000000000079e-04 1.852284385240466902e-01 3.641242634600037713e-04 2.299943765467868384e-03
2.054000000000000053e-04 1.924572004474696396e-01 3.808304060475003897e-04 2.322187632288155723e-03
2.079000000000000119e-04 1.948043378760714872e-01 3.864137987380476553e-04 2.435429768083530178e-03
2.081999999999999921e-04 1.950859988578999005e-01 3.870314100985603909e-04 1.950065624557156818e-03
2.090999999999999868e-04 1.959309855029948977e-01 3.881261957135444685e-04 6.411875526909013856e-04
2.159999999999999919e-04 2.024093317906446865e-01 3.940874488768042125e-04 1.199166870571831411e-03
2.231000000000000019e-04 2.090756740932291913e-01 4.013938420547467825e-04 9.928616047829054436e-04
2.311000000000000066e-04 2.165873044433437034e-01 4.085241694843774404e-04 9.056166966301716637e-04
2.401000000000000085e-04 2.250381721984245909e-01 4.159700687886608468e-04 8.565463878902855599e-04
2.500000000000000052e-04 2.343344406330727658e-01 4.237602369176299592e-04 8.194318812157330018e-04
2.642999999999999733e-04 2.477629128650125634e-01 4.345596643180389446e-04 7.890063723638815647e-04
3.052999999999999941e-04 2.862671839140227270e-01 4.644058706720978241e-04 7.612775562167708662e-04
3.533000000000000224e-04 3.313503829113090826e-01 4.987577676308450197e-04 7.626578558207241024e-04
4.075999999999999871e-04 3.823564017794535141e-01 5.381334366106255759e-04 7.813048116943254948e-04
4.679999999999999915e-04 4.390986251953180042e-01 5.832692638200615834e-04 8.096035963157804938e-04
5.341000000000000261e-04 5.012024644415256081e-01 6.346556894078133086e-04 8.452514814113673558e-04
6.059000000000000366e-04 5.686690698184251325e-01 6.930641302632923034e-04 8.862253587289389486e-04
7.661000000000000275e-04 7.192254882508629654e-01 8.328184776562496576e-04 9.702780530519144065e-04
1.262000000000000101e-03 1.185459127778160093e+00 1.338484980802662205e-03 1.198863597978450275e-03
1.894999999999999983e-03 1.780909071169781921e+00 2.123481960401060308e-03 1.437771491635827115e-03
2.673000000000000029e-03 2.513147344746868850e+00 3.261860252001994032e-03 1.671524566936786766e-03
3.605999999999999830e-03 3.391736073717691369e+00 4.828136641022434151e-03 1.893900408978071038e-03
4.709999999999999777e-03 4.431905410739045870e+00 6.903512974832482635e-03 2.096551352830673849e-03
7.496000000000000059e-03 7.058993649504918366e+00 1.289742191321638018e-02 2.466596387205546859e-03
1.119999999999999989e-02 1.055540362104863661e+01 2.212077014004794340e-02 2.809304433764861584e-03
1.600000000000000033e-02 1.509117352747679952e+01 3.559566804390756900e-02 3.132325055719984222e-03
2.206999999999999934e-02 2.083310616724802244e+01 5.457322122755020599e-02 3.477840948757840792e-03
2.947999999999999926e-02 2.785007348564149154e+01 8.049103664263126956e-02 3.909302116317729670e-03
4.268000000000000266e-02 4.036707211535221518e+01 1.353887601042819133e-01 4.862066536253286525e-03
6.219999999999999835e-02 5.891246509830522626e+01 2.419691225623893105e-01 6.630786177272363080e-03
7.316999999999999893e-02 6.935151695866235855e+01 3.161896974764099033e-01 7.588671314871411888e-03
7.595999999999999974e-02 7.200836722020332559e+01 3.371250777904805096e-01 8.170805199905812125e-03
7.685877551020407761e-02 7.286441687202660944e+01 3.442184353786674200e-01 8.401489173309831596e-03
7.775755102040816935e-02 7.372055067831954034e+01 3.515185897662812531e-01 8.652269640160963060e-03
7.865632653061224722e-02 7.457677015366859052e+01 3.590423814468367558e-01 8.922164811029411821e-03
7.955510204081632508e-02 7.543307696574555621e+01 3.668058178107993506e-01 9.210192896485388386e-03
8.045387755102040295e-02 7.628947292070516539e+01 3.748240730198743043e-01 9.515372107099101529e-03
8.135265306122449469e-02 7.714595994923459443e+01 3.831114878754098840e-01 9.836720653440763490e-03
8.225142857142857256e-02 7.800254009321729143e+01 3.916815696753936371e-01 1.017325674608057610e-02
8.315020408163265042e-02 7.885921549297866306e+01 4.005469920551644747e-01 1.052399859558875161e-02
8.404897959183672829e-02 7.971598837508108204e+01 4.097195948075537109e-01 1.088796441253549706e-02
8.494775510204082003e-02 8.057286104063882703e+01 4.192103836787274274e-01 1.126417240749103162e-02
8.584653061224489790e-02 8.142983585412588354e+01 4.290295301365144032e-01 1.165164079102554498e-02
8.674530612244897576e-02 8.228691523264903651e+01 4.391863711084892929e-01 1.204938777370925980e-02
8.764408163265305363e-02 8.314410163566338952e+01 4.496894086875242169e-01 1.245643156611238138e-02
8.854285714285714537e-02 8.400139755510608097e+01 4.605463098029470292e-01 1.287179037880512716e-02
8.944163265306122323e-02 8.485880550592735005e+01 4.717639058558317777e-01 1.329448242235768511e-02
9.034040816326530110e-02 8.571632801699853133e+01 4.833481923173184036e-01 1.372352590734027961e-02
9.123918367346939284e-02 8.657396762237699761e+01 4.953043282891962940e-01 1.415793904432312116e-02
9.213795918367347071e-02 8.743172685291173707e+01 5.076366360263127042e-01 1.459674004387640986e-02
9.303673469387754857e-02 8.828960822817086296e+01 5.203486004206693272e-01 1.503894711657035796e-02
9.393551020408162644e-02 8.914761424867631945e+01 5.334428684473480065e-01 1.548357847297517249e-02
9.483428571428570431e-02 9.000574738843002365e+01 5.469212485726807627e-01 1.592965232366106224e-02
9.573306122448979605e-02 9.086401008771795773e+01 5.607847101253234934e-01 1.637618687919824984e-02
9.663183673469387391e-02 9.172240474617773032e+01 5.750333826311313512e-01 1.682220035015692325e-02
9.753061224489795178e-02 9.258093371611862210e+01 5.896665551129574023e-01 1.726671094710729992e-02
9.842938775510204352e-02 9.343959929608037385e+01 6.046826753567015045e-01 1.770873688061959730e-02
9.932816326530612139e-02 9.429840372462103915e+01 6.200793491451364048e-01 1.814729636126400161e-02
1.002269387755101993e-01 9.515734917432205009e+01 6.358533394612289058e-01 1.858140759961074764e-02
1.011257142857142910e-01 9.601643774600178460e+01 6.520005656628415913e-01 1.901008880623003203e-02
1.020244897959183689e-01 9.687567146312640887e+01 6.685161026308747978e-01 1.943235819169205833e-02
1.029232653061224467e-01 9.773505226641096044e+01 6.853941798930678342e-01 1.984723396656703706e-02
1.038220408163265246e-01 9.859458200860078136e+01 7.026281807258207834e-01 2.025373434142518567e-02
1.047208163265306025e-01 9.945426244942585470e+01 7.202106412365488763e-01 2.065087752683670771e-02
1.056195918367346942e-01 1.003140952507203565e+02 7.381332494292127677e-01 2.103768173337181718e-02
1.065183673469387721e-01 1.011740819717006445e+02 7.563868442557951655e-01 2.141316517160071070e-02
1.074171428571428499e-01 1.020342240643940386e+02 7.749614146566230488e-01 2.177634605209360572e-02
1.083159183673469417e-01 1.028945228692130058e+02 7.938460985925411828e-01 2.212624258542071620e-02
1.092146938775510195e-01 1.037549796106678031e+02 8.130291820720610962e-01 2.246187298215223532e-02
1.101134693877550974e-01 1.046155953932126010e+02 8.324980981767154953e-01 2.278225545285838746e-02
1.110122448979591891e-01 1.054763711972187394e+02 8.522394260879416761e-01 2.308640820810937272e-02
1.119110204081632531e-01 1.063373078750713319e+02 8.722388901189194188e-01 2.337334945847539813e-02
1.128097959183673449e-01 1.071984061473823289e+02 8.924813587548855454e-01 2.364209741452668809e-02
1.137085714285714227e-01 1.080596665993180068e+02 9.129508437055156023e-01 2.389167028683342880e-02
1.146073469387755006e-01 1.089210896770341037e+02 9.336304989730763726e-01 2.412108628596584120e-02
1.155061224489795924e-01 1.097826756842161018e+02 9.545026199401038802e-01 2.432936362249413925e-02
1.164048979591836702e-01 1.106444247787198236e+02 9.755486424804559187e-01 2.451552050698851612e-02
1.173036734693877481e-01 1.115063369693091460e+02 9.967491420976599681e-01 2.467857515001919966e-02
1.182024489795918398e-01 1.123684121124874906e+02 1.018083833094536983e+00 2.481754576215638303e-02
1.191012244897959177e-01 1.132306499094188581e+02 1.039531567778159138e+00 2.493145055397028020e-02
1.199999999999999956e-01 1.140930499029366558e+02 1.061070335704263234e+00 2.501930773603110517e-02
1.225799807853872325e-01 1.165695083453705934e+02 1.123218284215497631e+00 2.517168646299129328e-02
1.251599615707744695e-01 1.190472793942086582e+02 1.185793626795839772e+00 2.533769716015855586e-02
1.277399423561617342e-01 1.215263451674126003e+02 1.248832366906789781e+00 2.551915104175413521e-02
1.303199231415489712e-01 1.240066892787836679e+02 1.312375100571311792e+00 2.571787114161151744e-02
1.328999039269362081e-01 1.264882968404223647e+02 1.376467055327267097e+00 2.593569289133793379e-02
1.354798847123234451e-01 1.289711544657666877e+02 1.441158130650337821e+00 2.617446467132114943e-02
1.380598654977106821e-01 1.314552502731817754e+02 1.506502939832235599e+00 2.643604833126538683e-02
1.406398462830979468e-01 1.339405738900777578e+02 1.572560853294076910e+00 2.672231967823182619e-02
1.432198270684851837e-01 1.364271164575317243e+02 1.639396043310578088e+00 2.703516893016260844e-02
1.457998078538724207e-01 1.389148706353945784e+02 1.707077530117276698e+00 2.737650113342257954e-02
1.483797886392596577e-01 1.414038306078649612e+02 1.775679229370658030e+00 2.774823654320949032e-02
1.509597694246468946e-01 1.438939920895094247e+02 1.845280000929665709e+00 2.815231096601759214e-02
1.535397502100341316e-01 1.463853523317175416e+02 1.915963698926282932e+00 2.859067606346786528e-02
1.561197309954213686e-01 1.488779101295735074e+02 1.987819223092866627e+00 2.906529961725147146e-02
1.586997117808086333e-01 1.513716658291315866e+02 2.060940571314456626e+00 2.957816575488529665e-02
1.612796925661958702e-01 1.538666213350823853e+02 2.135426893375184765e+00 3.013127513627838691e-02
1.638596733515831072e-01 1.563627801187962234e+02 2.211382545869384320e+00 3.072664510118910258e-02
1.664396541369703719e-01 1.588601472267341137e+02 2.288917148249718370e+00 3.136630977777041251e-02
1.690196349223576089e-01 1.613587292892133291e+02 2.368145639986742879e+00 3.205232015249615679e-02
1.715996157077448458e-01 1.638585345295188063e+02 2.449188338816657762e+00 3.278674410184030663e-02
1.741795964931320828e-01 1.663595727733486456e+02 2.532171000056542276e+00 3.357166638614841186e-02
1.767595772785193198e-01 1.688618554585872857e+02 2.617224876969155289e+00 3.440918860620034020e-02
1.793395580639065567e-01 1.713653956453949263e+02 2.704486782162309311e+00 3.530142912301263008e-02
1.819195388492937937e-01 1.738702080266075427e+02 2.794099150010902477e+00 3.625052294147389914e-02
1.844995196346810307e-01 1.763763089384378020e+02 2.886210100092920339e+00 3.725862155844487239e-02
1.870795004200682954e-01 1.788837163714713370e+02 2.980973501634045508e+00 3.832789277599094047e-02
1.896594812054555323e-01 1.813924499819523248e+02 3.078549038958938944e+00 3.946052048044643851e-02
1.922394619908427693e-01 1.839025311033505830e+02 3.179102277950814681e+00 4.065870438804155412e-02
1.948194427762300340e-01 1.864139827582061741e+02 3.282804733524504748e+00 4.192465975785048676e-02
1.973994235616172710e-01 1.889268296702466330e+02 3.389833938121936452e+00 4.326061707284794416e-02
1.999794043470045080e-01 1.914410982767716121e+02 3.500373511242717672e+00 4.466882168988968449e-02
2.025593851323917449e-01 1.939568167413019637e+02 3.614613230026332502e+00 4.615153345945850055e-02
2.051393659177789819e-01 1.964740149664899604e+02 3.732749100906398887e+00 4.771102631604620670e-02
2.077193467031662188e-01 1.989927246072859361e+02 3.854983432361392737e+00 4.934958784006979182e-02
2.102993274885534558e-01 2.015129790843634225e+02 3.981524908790290862e+00 5.106951879224759516e-02
2.128793082739407205e-01 2.040348135977955337e+02 4.112588665545689359e+00 5.287313262139061582e-02
2.154592890593279575e-01 2.065582651409857533e+02 4.248396365161111632e+00 5.476275494659278015e-02
2.180392698447151945e-01 2.090833725148512485e+02 4.389176274813476830e+00 5.674072301483312764e-02
2.206192506301024592e-01 2.116101763422575459e+02 4.535163345065945428e+00 5.880938513503210924e-02
2.231992314154896961e-01 2.141387190827061033e+02 4.686599289940739155e+00 6.097110008963217004e-02
2.257792122008769331e-01 2.166690450472769953e+02 4.843732668375953843e+00 6.322823652480345780e-02
2.283591929862641701e-01 2.192012004138245800e+02 5.006818967124790909e+00 6.558317232039996558e-02
2.309391737716514070e-01 2.217352332424330257e+02 5.176120685160214840e+00 6.803829394082018533e-02
2.335191545570386440e-01 2.242711934911316689e+02 5.351907419652574660e+00 7.059599576795004550e-02
2.360991353424258810e-01 2.268091330318731877e+02 5.534455953592360089e+00 7.325867941738767319e-02
2.386791161278131179e-01 2.293491056667815826e+02 5.724050345134918949e+00 7.602875303917164262e-02
2.412590969132003826e-01 2.318911671446701916e+02 5.920982018748654596e+00 7.890863060424758990e-02
2.438390776985876196e-01 2.344353751778389494e+02 6.125549858252946400e+00 8.190073117792424917e-02
2.464190584839748566e-01 2.369817894591540153e+02 6.338060301836815569e+00 8.500747818157551594e-02
3.230227511679753527e-01 3.141152908214696708e+02 1.764646317501481931e+01 2.057399339312514230e-01
3.996264438519758766e-01 3.950204968788976316e+02 3.933092858766649158e+01 3.264723896809273440e-01
4.762301365359763450e-01 4.810989392163618845e+02 7.284595548045007263e+01 4.472048454306031817e-01
5.528338292199769244e-01 5.735604013303870943e+02 1.200627895549282016e+02 5.679373011802792970e-01
6.294375219039773928e-01 6.735620144128563425e+02 1.832618701510893402e+02 6.886697569299551347e-01
7.060412145879778612e-01 7.822794027923750946e+02 2.651601642031118331e+02 8.094022126796309724e-01
7.826449072719784406e-01 9.009162737071076208e+02 3.635580834379706516e+02 8.468660755375905236e-01
8.592485999559789089e-01 1.029552283878475009e+03 4.547063055160643898e+02 5.855659875372591916e-01
9.358522926399793773e-01 1.164869802823394821e+03 5.157527419344158943e+02 3.242658995369278596e-01
1.012455985323980068e+00 1.304156949277021567e+03 5.581214117258264196e+02 2.848017339307840068e-01
1.089059678007980425e+00 1.447098210079146611e+03 6.270617700602715558e+02 6.700128215131181397e-01
1.165663370691981005e+00 1.596416479042939955e+03 7.273486232633225654e+02 6.733148232601104954e-01
1.242267063375981584e+00 1.752492457177751930e+03 8.326907793411778584e+02 6.766168250071027401e-01
1.318870756059982163e+00 1.915220178946870874e+03 9.430608477775059555e+02 6.799188267540949848e-01
1.395474448743982521e+00 2.084504602441018960e+03 1.058437861668371170e+03 6.832208285010872295e-01
1.472078141427983100e+00 2.260260135887912838e+03 1.178806406263527379e+03 6.865228302480795852e-01
1.548681834111983679e+00 2.442409430405359672e+03 1.304155908195943766e+03 6.898248319950718299e-01
1.625285526795984037e+00 2.630882380030257991e+03 1.434480049349323281e+03 6.931268337420640746e-01
1.701889219479984616e+00 2.825615285305014368e+03 1.569776278731298817e+03 6.964288354890563193e-01
1.778492912163985196e+00 3.026550147492688666e+03 1.710045402359526406e+03 6.997308372360486750e-01
1.855096604847985553e+00 3.233634068264780581e+03 1.855291235934697397e+03 7.030328389830409197e-01
1.931700297531986132e+00 3.446818735395479962e+03 2.005520308553224140e+03 7.063348407300331644e-01
2.008303990215986712e+00 3.666059979222717175e+03 2.160741608288927182e+03 7.096368424770254091e-01
2.084907682899987069e+00 3.891317387817908639e+03 2.320966362407250017e+03 7.129388442240176538e-01
