# density  energy_density  pressure   sound_speed_squared  [All in nuclear units]
2.720000000000000022e-14 2.529924618736292620e-11 1.061056609100270887e-19 3.766610435412189122e-08
1.269999999999999890e-13 1.181251617980081254e-10 4.870113551826584858e-18 6.497781477172163475e-08
6.929999999999999754e-13 6.445728594625782745e-10 1.018299070687946017e-16 3.033770597342807186e-07
6.295000000000000137e-12 5.855111460395753757e-09 5.487150723824490656e-15 1.763710043904196507e-06
1.581000000000000150e-11 1.470523320212576141e-08 2.904239460150760759e-14 3.559434472327477622e-06
3.971999999999999958e-11 3.694456170323160790e-08 1.439340266754906811e-13 6.772854871245677111e-06
9.975999999999999982e-11 9.278976412613005154e-08 6.812143616221268841e-13 1.246890511177539320e-05
2.505999999999999928e-10 2.330928829758143313e-07 3.107749196951638608e-12 2.212095130576091967e-05
6.294000000000000186e-10 5.854398883216247602e-07 1.363250409771533549e-11 3.761981047239428883e-05
1.581000000000000021e-09 1.470619631082054101e-06 5.726014178088476303e-11 6.095350986710739404e-05
3.971999999999999932e-09 3.694861084648016046e-06 2.210019573374265380e-10 8.628023653304385055e-05
5.000000000000000105e-09 4.651201787816927976e-06 3.071485916280120014e-10 9.387863480799757518e-05
9.975999999999999465e-09 9.280587964640925786e-06 8.385361004129998845e-10 1.356922228656245837e-04
1.989999999999999952e-08 1.851419242998081003e-05 2.287763168863418088e-09 1.782101978513718314e-04
3.972999999999999908e-08 3.696699295748789187e-05 6.061583099087538954e-09 2.308134738384234820e-04
7.925999999999999637e-08 7.375765469301719828e-05 1.575347858094044765e-08 2.960532096713864875e-04
1.580999999999999930e-07 1.471491184379128891e-04 3.910429618672550719e-08 3.402859755131850544e-04
1.991000000000000027e-07 1.853209783927820692e-04 5.252045687899177454e-08 3.626488188833278743e-04
3.155999999999999938e-07 2.938002528823880299e-04 9.730770378831954314e-08 4.630767356912104081e-04
5.000999999999999849e-07 4.656344063839075714e-04 1.837494945860225819e-07 5.430301232045120323e-04
6.295999999999999732e-07 5.862651417037388971e-04 2.503103884558263872e-07 5.605192962670089638e-04
9.666999999999999941e-07 9.003386739730535665e-04 4.324450868778576936e-07 5.993081670211623108e-04
1.531999999999999901e-06 1.427170885631398036e-03 7.780217275717420968e-07 7.125938556504039095e-04
2.506999999999999883e-06 2.336134972129507662e-03 1.471005394641589826e-06 8.121876172121876309e-04
3.974000000000000407e-06 3.704315759716615697e-03 2.695705763844323844e-06 9.780674166779417152e-04
4.830000000000000343e-06 4.502887798316278223e-03 3.503988717694660908e-06 1.046253037768318664e-03
6.080999999999999885e-06 5.670217999231269741e-03 4.731126407333307547e-06 1.056224360839501646e-03
7.930000000000000308e-06 7.396012414119570652e-03 6.599662989063778187e-06 1.109203753630785610e-03
9.982000000000000313e-06 9.311815711689977113e-03 8.879881089227186733e-06 1.271216815433141075e-03
1.256999999999999993e-05 1.172874412604260098e-02 1.207676739913533738e-05 1.374195438212825332e-03
1.521999999999999997e-05 1.420427250933824909e-02 1.547541302213394990e-05 1.371610497379100249e-03
1.991000000000000080e-05 1.858690797761085312e-02 2.160710455847765458e-05 1.426578142835871997e-03
2.506999999999999883e-05 2.341050104039446925e-02 2.908031724375689851e-05 1.672007475975408053e-03
2.790999999999999875e-05 2.606604784714952258e-02 3.357009132255487721e-05 1.709425557744154774e-03
3.806999999999999973e-05 3.556967988784798945e-02 4.986781576435106434e-05 1.720407281314112165e-03
5.063000000000000145e-05 4.732434580343149871e-02 7.073400252905581275e-05 1.829889149838781265e-03
6.592000000000000583e-05 6.164112392498975052e-02 9.765037643900635188e-05 1.930242980462695823e-03
8.433000000000000066e-05 7.888776783401378612e-02 1.317235490470395893e-04 2.021055815200022837e-03
1.062000000000000064e-04 9.938561165478684845e-02 1.740088341640037047e-04 2.104789529260958983e-03
1.321000000000000126e-04 1.236720406455826121e-01 2.260189757651373944e-04 2.178291718403657477e-03
1.623999999999999901e-04 1.520974545104751274e-01 2.888169908545388338e-04 2.240170365918073281e-03
1.689999999999999879e-04 1.582907717069566844e-01 3.027354772999506964e-04 2.254509350360745651e-03
1.758999999999999930e-04 1.647661861691531171e-01 3.173785841705756782e-04 2.268169273277113179e-03
1.830000000000000029e-04 1.714298948183871907e-01 3.325196584577469103e-04 2.276170334580628063e-03
1.901999999999999882e-04 1.781880600978280049e-01 3.479577791899843742e-04 2.292561569242367037e-03
1.977000000000000079e-04 1.852284385240466902e-01 3.641242634600037713e-04 2.299943765467868384e-03
2.054000000000000053e-04 1.924572004474696396e-01 3.808304060475003897e-04 2.322187632288155723e-03
2.079000000000000119e-04 1.948043378760714872e-01 3.864137987380476553e-04 2.435429768083530178e-03
2.081999999999999921e-04 1.950859988578999005e-01 3.870314100985603909e-04 1.950065624557156818e-03
2.090999999999999868e-04 1.959309855029948977e-01 3.881261957135444685e-04 6.411875526909013856e-04
2.159999999999999919e-04 2.024093317906446865e-01 3.940874488768042125e-04 1.199166870571831411e-03
2.231000000000000019e-04 2.090756740932291913e-01 4.013938420547467825e-04 9.928616047829054436e-04
2.311000000000000066e-04 2.165873044433437034e-01 4.085241694843774404e-04 9.056166966301716637e-04
2.401000000000000085e-04 2.250381721984245909e-01 4.159700687886608468e-04 8.565463878902855599e-04
2.500000000000000052e-04 2.343344406330727658e-01 4.237602369176299592e-04 8.194318812157330018e-04
2.642999999999999733e-04 2.477629128650125634e-01 4.345596643180389446e-04 7.890063723638815647e-04
3.052999999999999941e-04 2.862671839140227270e-01 4.644058706720978241e-04 7.612775562167708662e-04
3.533000000000000224e-04 3.313503829113090826e-01 4.987577676308450197e-04 7.626578558207241024e-04
4.075999999999999871e-04 3.823564017794535141e-01 5.381334366106255759e-04 7.813048116943254948e-04
4.679999999999999915e-04 4.390986251953180042e-01 5.832692638200615834e-04 8.096035963157804938e-04
5.341000000000000261e-04 5.012024644415256081e-01 6.346556894078133086e-04 8.452514814113673558e-04
6.059000000000000366e-04 5.686690698184251325e-01 6.930641302632923034e-04 8.862253587289389486e-04
7.661000000000000275e-04 7.192254882508629654e-01 8.328184776562496576e-04 9.702780530519144065e-04
1.262000000000000101e-03 1.185459127778160093e+00 1.338484980802662205e-03 1.198863597978450275e-03
1.894999999999999983e-03 1.780909071169781921e+00 2.123481960401060308e-03 1.437771491635827115e-03
2.673000000000000029e-03 2.513147344746868850e+00 3.261860252001994032e-03 1.671524566936786766e-03
3.605999999999999830e-03 3.391736073717691369e+00 4.828136641022434151e-03 1.893900408978071038e-03
4.709999999999999777e-03 4.431905410739045870e+00 6.903512974832482635e-03 2.096551352830673849e-03
7.496000000000000059e-03 7.058993649504918366e+00 1.289742191321638018e-02 2.466596387205546859e-03
1.119999999999999989e-02 1.055540362104863661e+01 2.212077014004794340e-02 2.809304433764861584e-03
1.600000000000000033e-02 1.509117352747679952e+01 3.559566804390756900e-02 3.132325055719984222e-03
2.206999999999999934e-02 2.083310616724802244e+01 5.457322122755020599e-02 3.477840948757840792e-03
2.947999999999999926e-02 2.785007348564149154e+01 8.049103664263126956e-02 3.909302116317729670e-03
4.268000000000000266e-02 4.036707211535221518e+01 1.353887601042819133e-01 4.862066536253286525e-03
6.219999999999999835e-02 5.891246509830522626e+01 2.419691225623893105e-01 6.630786177272363080e-03
7.316999999999999893e-02 6.935151695866235855e+01 3.161896974764099033e-01 7.588671314871411888e-03
7.595999999999999974e-02 7.200836722020332559e+01 3.371250777904805096e-01 8.170805199905812125e-03
7.685877551020407761e-02 7.286441675837205878e+01 3.441989851290652158e-01 8.356051744125063407e-03
7.775755102040816935e-02 7.372054992433204745e+01 3.514281968495119868e-01 8.531995506722638359e-03
7.865632653061224722e-02 7.457676750229107654e+01 3.588050152194878217e-01 8.699174900300572430e-03
7.955510204081632508e-02 7.543307017317607688e+01 3.663222007614641562e-01 8.858128337460906276e-03
8.045387755102040295e-02 7.628945852331244737e+01 3.739729724086673923e-01 9.009394230805678819e-03
8.135265306122449469e-02 7.714593305271709767e+01 3.817510076758350301e-01 9.153510992936928978e-03
8.225142857142857256e-02 7.800249418302747983e+01 3.896504428426391664e-01 9.291017036456692205e-03
8.315020408163265042e-02 7.885914226508553782e+01 3.976658731478635023e-01 9.422450773967010890e-03
8.404897959183672829e-02 7.971587758619611463e+01 4.057923529926227846e-01 9.548350618069920484e-03
8.494775510204082003e-02 8.057270037707704091e+01 4.140253961511095038e-01 9.669254981367465113e-03
8.584653061224489790e-02 8.142961081851724714e+01 4.223609759875289749e-01 9.785702276461675023e-03
8.674530612244897576e-02 8.228660904775846063e+01 4.307955256780529041e-01 9.898230915954594339e-03
8.764408163265305363e-02 8.314369516461452747e+01 4.393259384367738662e-01 1.000737931244826198e-02
8.854285714285714537e-02 8.400086923734214395e+01 4.479495677447929425e-01 1.011368587854471514e-02
8.944163265306122323e-02 8.485813130827530415e+01 4.566642275817044960e-01 1.021768902684599099e-02
9.034040816326530110e-02 8.571548139923616816e+01 4.654681926588737362e-01 1.031992716995412673e-02
9.123918367346939284e-02 8.657291951673205688e+01 4.743601986540165738e-01 1.042093872047116648e-02
9.213795918367347071e-02 8.743044565695086590e+01 4.833394424467072348e-01 1.052126209099914569e-02
9.303673469387754857e-02 8.828805981056289909e+01 4.924055823545435695e-01 1.062143569414010155e-02
9.393551020408162644e-02 8.914576196734032010e+01 5.015587383697936996e-01 1.072199794249607818e-02
9.483428571428570431e-02 9.000355212060149768e+01 5.107994923964466194e-01 1.082348724866910583e-02
9.573306122448979605e-02 9.086143027148919771e+01 5.201288884876705820e-01 1.092644202526123209e-02
9.663183673469387391e-02 9.171939643309028156e+01 5.295484330837677556e-01 1.103140068487448895e-02
9.753061224489795178e-02 9.257745063440472677e+01 5.390600952507901278e-01 1.113890164011091359e-02
9.842938775510204352e-02 9.343559292417000961e+01 5.486663069200525822e-01 1.124948330357255361e-02
9.932816326530612139e-02 9.429382337454813978e+01 5.583699631288480125e-01 1.136368408786143924e-02
1.002269387755101993e-01 9.515214208468162838e+01 5.681744222627360674e-01 1.148204240557960942e-02
1.011257142857142910e-01 9.601054918412404504e+01 5.780835062998324059e-01 1.160509666932911348e-02
1.020244897959183689e-01 9.686904483615020922e+01 5.881015010575887381e-01 1.173338529171197471e-02
1.029232653061224467e-01 9.772762924095287929e+01 5.982331564426046633e-01 1.186744668533024072e-02
1.038220408163265246e-01 9.858630263872899491e+01 6.084836867040634978e-01 1.200781926278594695e-02
1.047208163265306025e-01 9.944506531266212335e+01 6.188587706914348008e-01 1.215504143668113234e-02
1.056195918367346942e-01 1.003039175918040229e+02 6.293645521171311596e-01 1.230965161961783925e-02
1.065183673469387721e-01 1.011628598538608372e+02 6.400076398248492060e-01 1.247218822419810143e-02
1.074171428571428499e-01 1.020218925278872319e+02 6.507951080643696873e-01 1.264318966302395951e-02
1.083159183673469417e-01 1.028810160968929779e+02 6.617344967736261685e-01 1.282319434869745242e-02
1.092146938775510195e-01 1.037402311003650368e+02 6.728338118688917957e-01 1.301274069382061735e-02
1.101134693877550974e-01 1.045995381367094836e+02 6.841015255439708564e-01 1.321236711099549321e-02
1.110122448979591891e-01 1.054589378656154253e+02 6.955465765793099608e-01 1.342261201282411893e-02
1.119110204081632531e-01 1.063184310103460604e+02 7.071783706619806376e-01 1.364401381190853343e-02
1.128097959183673449e-01 1.071780183599575622e+02 7.190067807175166692e-01 1.387711092085077910e-02
1.137085714285714227e-01 1.080377007714508011e+02 7.310421472546093646e-01 1.412244175225288445e-02
1.146073469387755006e-01 1.088974791718570430e+02 7.432952787237079306e-01 1.438054471871689707e-02
1.155061224489795924e-01 1.097573545602618879e+02 7.557774518905806538e-01 1.465195823284486110e-02
1.164048979591836702e-01 1.106173280097686842e+02 7.685004122259317949e-01 1.493722070723879636e-02
1.173036734693877481e-01 1.114774006694043607e+02 7.814763743121877493e-01 1.523687055450075219e-02
1.182024489795918398e-01 1.123375737659703475e+02 7.947180222685881201e-01 1.555144618723277097e-02
1.191012244897959177e-01 1.131978486058400648e+02 8.082385101957424434e-01 1.588148601803688817e-02
1.199999999999999956e-01 1.140582265767057919e+02 8.220514626408362835e-01 1.622752845951513576e-02
1.234784576309532617e-01 1.173890880184033136e+02 8.785130968297141241e-01 1.767427553517446001e-02
1.269569152619065278e-01 1.207216082982024119e+02 9.398569152889051370e-01 1.914065710583903041e-02
1.304353728928598077e-01 1.240558766542042548e+02 1.006149254097797430e+00 2.062323385605430506e-02
1.339138305238130600e-01 1.273919791882464239e+02 1.077445477534460183e+00 2.211861483811400700e-02
1.373922881547663399e-01 1.307299988268701156e+02 1.153790100864977131e+00 2.362345612698899325e-02
1.408707457857196199e-01 1.340700152892507901e+02 1.235216905133604159e+00 2.513445913420694552e-02
1.443492034166728721e-01 1.374121050610240218e+02 1.321749043113513267e+00 2.664836859055167220e-02
1.478276610476261521e-01 1.407563413730726438e+02 1.413399135593672362e+00 2.816197020651542773e-02
1.513061186785794043e-01 1.441027941844548081e+02 1.510169357189814043e+00 2.967208801866675141e-02
1.547845763095326843e-01 1.474515301687461317e+02 1.612051510877269722e+00 3.117558142948891747e-02
1.582630339404859643e-01 1.508026127031502597e+02 1.719027090451256345e+00 3.266934194775569789e-02
1.617414915714392443e-01 1.541561018597992074e+02 1.831067330126757264e+00 3.415028963614954310e-02
1.652199492023924965e-01 1.575120543987228530e+02 1.948133240495838470e+00 3.561536927257810681e-02
1.686984068333457765e-01 1.608705237620174273e+02 2.070175630065771877e+00 3.706154623151140803e-02
1.721768644642990287e-01 1.642315600687806239e+02 2.197135111607131819e+00 3.848580209164388644e-02
1.756553220952523087e-01 1.675952101104276153e+02 2.328942092547732212e+00 3.988512997628920753e-02
1.791337797262055886e-01 1.709615173460191784e+02 2.465516748656321422e+00 4.125652963315108723e-02
1.826122373571588409e-01 1.743305218972742807e+02 2.606768980270099956e+00 4.259700226048995786e-02
1.860906949881121208e-01 1.777022605429564805e+02 2.752598350332877697e+00 4.390354508724018945e-02
1.895691526190653731e-01 1.810767667123444937e+02 2.902894003526801381e+00 4.517314571534057632e-02
1.930476102500186530e-01 1.844540704775180018e+02 3.057534565800883009e+00 4.640277623344508245e-02
1.965260678809719330e-01 1.878341985442073678e+02 3.216388023624711767e+00 4.758938711230431551e-02
2.000045255119252130e-01 1.912171742409682906e+02 3.379311582326921748e+00 4.872990089347671583e-02
2.034829831428784652e-01 1.946030175064582579e+02 3.546151502916000009e+00 4.982120568467672539e-02
2.069614407738317174e-01 1.979917448746044784e+02 3.716742916827229237e+00 5.086014847702456654e-02
2.104398984047849974e-01 2.013833694574654203e+02 3.890909618095092615e+00 5.184352830177253041e-02
2.139183560357382774e-01 2.047779009255981464e+02 4.068463832516903800e+00 5.276808924678853818e-02
2.173968136666915574e-01 2.081753454857590100e+02 4.249205963452276968e+00 5.363051335622112670e-02
2.208752712976448096e-01 2.115757058557732648e+02 4.432924313996124965e+00 5.442741344041546886e-02
2.243537289285980896e-01 2.149789812364241186e+02 4.619394785372230139e+00 5.515532582734379574e-02
2.278321865595513418e-01 2.183851672802219355e+02 4.808380551522148494e+00 5.581070309162639020e-02
2.313106441905046218e-01 2.217942560569293278e+02 4.999631710012892860e+00 5.638990680272031042e-02
2.347891018214579018e-01 2.252062360157335377e+02 5.192884909558985740e+00 5.688920034011105825e-02
2.382675594524111540e-01 2.286210919439666043e+02 5.387862954653254377e+00 5.730474183044300535e-02
2.417460170833644340e-01 2.320388049223028588e+02 5.584274388029226266e+00 5.763257726955098303e-02
2.452244747143176862e-01 2.354593522763683495e+02 5.781813051939773906e+00 5.786863390139148494e-02
2.487029323452709662e-01 2.388827075247277492e+02 5.980157629535646890e+00 5.800871393600389586e-02
2.521813899762242461e-01 2.423088403232366659e+02 6.178971167967676870e+00 5.804848870000026834e-02
2.556598476071775261e-01 2.457377164057649281e+02 6.377900585222398000e+00 5.798349332565844866e-02
2.591383052381307506e-01 2.491692975213410932e+02 6.576576163136945929e+00 5.780912209872283991e-02
2.626167628690840861e-01 2.526035413677844303e+02 6.774611029530650974e+00 5.752062460044383291e-02
2.660952205000373105e-01 2.560404015219391454e+02 6.971600632942386966e+00 5.711310279634133208e-02
2.695736781309905905e-01 2.594798273666622208e+02 7.167122214080148268e+00 5.658150924267481285e-02
2.730521357619438705e-01 2.629217640147624593e+02 7.360734278776836170e+00 5.592064660167177237e-02
2.765305933928970950e-01 2.663661522301374589e+02 7.551976078009731808e+00 5.512516867810770410e-02
2.800090510238504304e-01 2.698129283464147647e+02 7.740367101384177495e+00 5.418958321287543900e-02
2.834875086548036549e-01 2.732620241834644617e+02 7.925406591409197787e+00 5.310825669349251987e-02
2.869659662857569349e-01 2.767133669622210164e+02 8.106573086906195158e+00 5.187542146635135826e-02
2.904444239167102149e-01 2.801668792183218670e+02 8.283324004996410750e+00 5.048518546379168054e-02
3.661496397551446957e-01 3.576118869079537603e+02 3.503281091693666838e+01 6.122342667309687014e-01
4.418548555935791766e-01 4.437461507079206058e+02 8.534440257724591561e+01 5.617096296588842685e-01
5.175600714320136575e-01 5.385969718757098690e+02 1.362647113387619697e+02 5.158390325790934705e-01
5.932652872704481384e-01 6.408857197891874193e+02 1.865650632804970144e+02 4.705035991226991232e-01
6.689705031088826193e-01 7.495048708674618183e+02 2.350919746124399410e+02 4.251681656663047759e-01
7.446757189473171001e-01 8.634776357791668033e+02 2.808731595935390146e+02 3.798327322099104286e-01
8.203809347857515810e-01 9.819365086594456216e+02 3.231092712974819960e+02 3.344972987535160813e-01
8.960861506241860619e-01 1.104107688287489964e+03 3.611489319263492916e+02 2.891618652971217340e-01
9.717913664626205428e-01 1.229298878365680366e+03 3.944683019165052542e+02 2.438264318407273867e-01
1.047496582301055135e+00 1.356889447453595722e+03 4.226539972452942493e+02 1.984909983843329839e-01
1.123201798139489505e+00 1.486349521581530553e+03 4.463099034971511969e+02 1.672259776719343116e-01
1.198907013977923874e+00 1.617297688988200889e+03 4.668634837402685207e+02 1.468312327880910151e-01
1.274612229816358466e+00 1.749466457077794985e+03 4.849150486056818750e+02 1.264364879042476908e-01
1.350317445654793058e+00 1.882632195987675004e+03 5.003885413291874329e+02 1.060417430204043526e-01
1.426022661493227428e+00 2.016629025865865970e+03 5.146924611192506518e+02 1.074556784425302336e-01
1.501727877331661798e+00 2.151494548461986597e+03 5.338327725877850298e+02 1.761085512035000522e-01
1.577433093170096168e+00 2.287552984847036896e+03 5.624923255049900490e+02 2.447614239644699263e-01
1.653138309008530982e+00 2.425210435461899579e+03 6.009485808739894992e+02 3.134142967254401335e-01
1.728843524846965352e+00 2.564850100354859933e+03 6.495548048189901920e+02 3.820671694864100076e-01
1.804548740685399721e+00 2.706786231281110759e+03 7.045297910842231204e+02 3.924957972905120940e-01
1.880253956523834091e+00 2.850993759023718212e+03 7.554688883612011523e+02 3.147685876034553298e-01
1.955959172362268905e+00 2.997032606444562134e+03 7.957209769973102311e+02 2.370413779163980939e-01
2.031664388200703275e+00 3.144410162781384315e+03 8.249014458095405189e+02 1.593141682293413020e-01
2.107369604039137645e+00 3.292658531377662712e+03 8.427435867548653050e+02 8.158695854228453781e-02
