# density  energy_density  pressure   sound_speed_squared  [All in nuclear units]
2.720000000000000022e-14 2.529924618736292620e-11 1.061056609100270887e-19 3.766610435412189122e-08
1.269999999999999890e-13 1.181251617980081254e-10 4.870113551826584858e-18 6.497781477172163475e-08
6.929999999999999754e-13 6.445728594625782745e-10 1.018299070687946017e-16 3.033770597342807186e-07
6.295000000000000137e-12 5.855111460395753757e-09 5.487150723824490656e-15 1.763710043904196507e-06
1.581000000000000150e-11 1.470523320212576141e-08 2.904239460150760759e-14 3.559434472327477622e-06
3.971999999999999958e-11 3.694456170323160790e-08 1.439340266754906811e-13 6.772854871245677111e-06
9.975999999999999982e-11 9.278976412613005154e-08 6.812143616221268841e-13 1.246890511177539320e-05
2.505999999999999928e-10 2.330928829758143313e-07 3.107749196951638608e-12 2.212095130576091967e-05
6.294000000000000186e-10 5.854398883216247602e-07 1.363250409771533549e-11 3.761981047239428883e-05
1.581000000000000021e-09 1.470619631082054101e-06 5.726014178088476303e-11 6.095350986710739404e-05
3.971999999999999932e-09 3.694861084648016046e-06 2.210019573374265380e-10 8.628023653304385055e-05
5.000000000000000105e-09 4.651201787816927976e-06 3.071485916280120014e-10 9.387863480799757518e-05
9.975999999999999465e-09 9.280587964640925786e-06 8.385361004129998845e-10 1.356922228656245837e-04
1.989999999999999952e-08 1.851419242998081003e-05 2.287763168863418088e-09 1.782101978513718314e-04
3.972999999999999908e-08 3.696699295748789187e-05 6.061583099087538954e-09 2.308134738384234820e-04
7.925999999999999637e-08 7.375765469301719828e-05 1.575347858094044765e-08 2.960532096713864875e-04
1.580999999999999930e-07 1.471491184379128891e-04 3.910429618672550719e-08 3.402859755131850544e-04
1.991000000000000027e-07 1.853209783927820692e-04 5.252045687899177454e-08 3.626488188833278743e-04
3.155999999999999938e-07 2.938002528823880299e-04 9.730770378831954314e-08 4.630767356912104081e-04
5.000999999999999849e-07 4.656344063839075714e-04 1.837494945860225819e-07 5.430301232045120323e-04
6.295999999999999732e-07 5.862651417037388971e-04 2.503103884558263872e-07 5.605192962670089638e-04
9.666999999999999941e-07 9.003386739730535665e-04 4.324450868778576936e-07 5.993081670211623108e-04
1.531999999999999901e-06 1.427170885631398036e-03 7.780217275717420968e-07 7.125938556504039095e-04
2.506999999999999883e-06 2.336134972129507662e-03 1.471005394641589826e-06 8.121876172121876309e-04
3.974000000000000407e-06 3.704315759716615697e-03 2.695705763844323844e-06 9.780674166779417152e-04
4.830000000000000343e-06 4.502887798316278223e-03 3.503988717694660908e-06 1.046253037768318664e-03
6.080999999999999885e-06 5.670217999231269741e-03 4.731126407333307547e-06 1.056224360839501646e-03
7.930000000000000308e-06 7.396012414119570652e-03 6.599662989063778187e-06 1.109203753630785610e-03
9.982000000000000313e-06 9.311815711689977113e-03 8.879881089227186733e-06 1.271216815433141075e-03
1.256999999999999993e-05 1.172874412604260098e-02 1.207676739913533738e-05 1.374195438212825332e-03
1.521999999999999997e-05 1.420427250933824909e-02 1.547541302213394990e-05 1.371610497379100249e-03
1.991000000000000080e-05 1.858690797761085312e-02 2.160710455847765458e-05 1.426578142835871997e-03
2.506999999999999883e-05 2.341050104039446925e-02 2.908031724375689851e-05 1.672007475975408053e-03
2.790999999999999875e-05 2.606604784714952258e-02 3.357009132255487721e-05 1.709425557744154774e-03
3.806999999999999973e-05 3.556967988784798945e-02 4.986781576435106434e-05 1.720407281314112165e-03
5.063000000000000145e-05 4.732434580343149871e-02 7.073400252905581275e-05 1.829889149838781265e-03
6.592000000000000583e-05 6.164112392498975052e-02 9.765037643900635188e-05 1.930242980462695823e-03
8.433000000000000066e-05 7.888776783401378612e-02 1.317235490470395893e-04 2.021055815200022837e-03
1.062000000000000064e-04 9.938561165478684845e-02 1.740088341640037047e-04 2.104789529260958983e-03
1.321000000000000126e-04 1.236720406455826121e-01 2.260189757651373944e-04 2.178291718403657477e-03
1.623999999999999901e-04 1.520974545104751274e-01 2.888169908545388338e-04 2.240170365918073281e-03
1.689999999999999879e-04 1.582907717069566844e-01 3.027354772999506964e-04 2.254509350360745651e-03
1.758999999999999930e-04 1.647661861691531171e-01 3.173785841705756782e-04 2.268169273277113179e-03
1.830000000000000029e-04 1.714298948183871907e-01 3.325196584577469103e-04 2.276170334580628063e-03
1.901999999999999882e-04 1.781880600978280049e-01 3.479577791899843742e-04 2.292561569242367037e-03
1.977000000000000079e-04 1.852284385240466902e-01 3.641242634600037713e-04 2.299943765467868384e-03
2.054000000000000053e-04 1.924572004474696396e-01 3.808304060475003897e-04 2.322187632288155723e-03
2.079000000000000119e-04 1.948043378760714872e-01 3.864137987380476553e-04 2.435429768083530178e-03
2.081999999999999921e-04 1.950859988578999005e-01 3.870314100985603909e-04 1.950065624557156818e-03
2.090999999999999868e-04 1.959309855029948977e-01 3.881261957135444685e-04 6.411875526909013856e-04
2.159999999999999919e-04 2.024093317906446865e-01 3.940874488768042125e-04 1.199166870571831411e-03
2.231000000000000019e-04 2.090756740932291913e-01 4.013938420547467825e-04 9.928616047829054436e-04
2.311000000000000066e-04 2.165873044433437034e-01 4.085241694843774404e-04 9.056166966301716637e-04
2.401000000000000085e-04 2.250381721984245909e-01 4.159700687886608468e-04 8.565463878902855599e-04
2.500000000000000052e-04 2.343344406330727658e-01 4.237602369176299592e-04 8.194318812157330018e-04
2.642999999999999733e-04 2.477629128650125634e-01 4.345596643180389446e-04 7.890063723638815647e-04
3.052999999999999941e-04 2.862671839140227270e-01 4.644058706720978241e-04 7.612775562167708662e-04
3.533000000000000224e-04 3.313503829113090826e-01 4.987577676308450197e-04 7.626578558207241024e-04
4.075999999999999871e-04 3.823564017794535141e-01 5.381334366106255759e-04 7.813048116943254948e-04
4.679999999999999915e-04 4.390986251953180042e-01 5.832692638200615834e-04 8.096035963157804938e-04
5.341000000000000261e-04 5.012024644415256081e-01 6.346556894078133086e-04 8.452514814113673558e-04
6.059000000000000366e-04 5.686690698184251325e-01 6.930641302632923034e-04 8.862253587289389486e-04
7.661000000000000275e-04 7.192254882508629654e-01 8.328184776562496576e-04 9.702780530519144065e-04
1.262000000000000101e-03 1.185459127778160093e+00 1.338484980802662205e-03 1.198863597978450275e-03
1.894999999999999983e-03 1.780909071169781921e+00 2.123481960401060308e-03 1.437771491635827115e-03
2.673000000000000029e-03 2.513147344746868850e+00 3.261860252001994032e-03 1.671524566936786766e-03
3.605999999999999830e-03 3.391736073717691369e+00 4.828136641022434151e-03 1.893900408978071038e-03
4.709999999999999777e-03 4.431905410739045870e+00 6.903512974832482635e-03 2.096551352830673849e-03
7.496000000000000059e-03 7.058993649504918366e+00 1.289742191321638018e-02 2.466596387205546859e-03
1.119999999999999989e-02 1.055540362104863661e+01 2.212077014004794340e-02 2.809304433764861584e-03
1.600000000000000033e-02 1.509117352747679952e+01 3.559566804390756900e-02 3.132325055719984222e-03
2.206999999999999934e-02 2.083310616724802244e+01 5.457322122755020599e-02 3.477840948757840792e-03
2.947999999999999926e-02 2.785007348564149154e+01 8.049103664263126956e-02 3.909302116317729670e-03
4.268000000000000266e-02 4.036707211535221518e+01 1.353887601042819133e-01 4.862066536253286525e-03
6.219999999999999835e-02 5.891246509830522626e+01 2.419691225623893105e-01 6.630786177272363080e-03
7.316999999999999893e-02 6.935151695866235855e+01 3.161896974764099033e-01 7.588671314871411888e-03
7.595999999999999974e-02 7.200836722020332559e+01 3.371250777904805096e-01 8.170805199905812125e-03
7.685877551020407761e-02 7.286441681626030231e+01 3.442088917144865423e-01 8.379194369118105404e-03
7.775755102040816935e-02 7.372055030825183053e+01 3.514742170890423623e-01 8.593209068656765259e-03
7.865632653061224722e-02 7.457676885181759019e+01 3.589257930989000478e-01 8.812562022229568359e-03
7.955510204081632508e-02 7.543307362895602353e+01 3.665681153176502116e-01 9.036965953544298311e-03
8.045387755102040295e-02 7.628946584437743184e+01 3.744054356358642033e-01 9.266133586308743925e-03
8.135265306122449469e-02 7.714594672202032655e+01 3.824417621844402593e-01 9.499777644230685339e-03
8.225142857142857256e-02 7.800251750172024856e+01 3.906808592529067425e-01 9.737610851017900956e-03
8.315020408163265042e-02 7.885917943602338198e+01 3.991262472024786900e-01 9.979345930378179588e-03
8.404897959183672829e-02 7.971593378713714628e+01 4.077812023736993030e-01 1.022469560601929964e-02
8.494775510204082003e-02 8.057278182401012145e+01 4.166487569885371500e-01 1.047337260164905165e-02
8.584653061224489790e-02 8.142972481953431441e+01 4.257316990468397733e-01 1.072508964097520882e-02
8.674530612244897576e-02 8.228676404786378384e+01 4.350325722170790277e-01 1.097955944770556171e-02
8.764408163265305363e-02 8.314390078184318611e+01 4.445536757213480183e-01 1.123649474554788523e-02
8.854285714285714537e-02 8.400113629054035869e+01 4.542970642146008653e-01 1.149560825820997861e-02
8.944163265306122323e-02 8.485847183687801021e+01 4.642645476581481745e-01 1.175661270939960812e-02
9.034040816326530110e-02 8.571590867535962843e+01 4.744576911874494041e-01 1.201922082282456082e-02
9.123918367346939284e-02 8.657344804988368026e+01 4.848778149742592469e-01 1.228314532219262206e-02
9.213795918367347071e-02 8.743109119164363108e+01 4.955259940832115184e-01 1.254809893121157545e-02
9.303673469387754857e-02 8.828883931710753075e+01 5.064030583229423010e-01 1.281379437358920285e-02
9.393551020408162644e-02 8.914669362607493497e+01 5.175095920918697523e-01 1.307994437303328615e-02
9.483428571428570431e-02 9.000465529980642998e+01 5.288459342187685763e-01 1.334626165325160548e-02
9.573306122448979605e-02 9.086272549922209407e+01 5.404121777982924257e-01 1.361245893795195831e-02
9.663183673469387391e-02 9.172090536316697751e+01 5.522081700216114886e-01 1.387824895084210745e-02
9.753061224489795178e-02 9.257919600673855598e+01 5.642335120023502792e-01 1.414334441562985038e-02
9.842938775510204352e-02 9.343759851967499230e+01 5.764875585980195893e-01 1.440745805602296724e-02
9.932816326530612139e-02 9.429611396480015628e+01 5.889694182271533185e-01 1.467030259572923989e-02
1.002269387755101993e-01 9.515474337652337056e+01 6.016779526823732294e-01 1.493159075845644501e-02
1.011257142857142910e-01 9.601348775939125346e+01 6.146117769396121089e-01 1.519103526791237488e-02
1.020244897959183689e-01 9.687234808668937092e+01 6.277692589637405840e-01 1.544834884780480443e-02
1.029232653061224467e-01 9.773132529909156574e+01 6.411485195108541646e-01 1.570324422184152593e-02
1.038220408163265246e-01 9.859042030335463380e+01 6.547474319274808607e-01 1.595543411373031434e-02
1.047208163265306025e-01 9.944963397105617275e+01 6.685636219469861530e-01 1.620463124717895498e-02
1.056195918367346942e-01 1.003089671373744807e+02 6.825944674834569792e-01 1.645054834589523840e-02
1.065183673469387721e-01 1.011684205999076624e+02 6.968370984233535070e-01 1.669289813358693780e-02
1.074171428571428499e-01 1.020279951175317876e+02 7.112883964152326710e-01 1.693139333396183679e-02
1.083159183673469417e-01 1.028876914092941774e+02 7.259449946578442336e-01 1.716574667072772592e-02
1.092146938775510195e-01 1.037475101533426738e+02 7.408032776869152292e-01 1.739567086759237491e-02
1.101134693877550974e-01 1.046074519858881899e+02 7.558593811609470858e-01 1.762087864826357778e-02
1.110122448979591891e-01 1.054675175001990368e+02 7.711091916463465035e-01 1.784108273644912507e-02
1.119110204081632531e-01 1.063277072456264705e+02 7.865483464022268167e-01 1.805599585585677611e-02
1.128097959183673449e-01 1.071880217266593576e+02 8.021722331652230142e-01 1.826533073019433531e-02
1.137085714285714227e-01 1.080484614020079874e+02 8.179759899346563667e-01 1.846880008316957242e-02
1.146073469387755006e-01 1.089090266837144299e+02 8.339545047584109305e-01 1.866611663849027797e-02
1.155061224489795924e-01 1.097697179362894957e+02 8.501024155198690924e-01 1.885699311986423557e-02
1.164048979591836702e-01 1.106305354758746802e+02 8.664141097262707536e-01 1.904114225099922536e-02
1.173036734693877481e-01 1.114914795694287051e+02 8.828837242988649692e-01 1.921827675560302401e-02
1.182024489795918398e-01 1.123525504339372958e+02 8.995051453652187501e-01 1.938810935738342900e-02
1.191012244897959177e-01 1.132137482356447862e+02 9.162720080540618373e-01 1.955035278004821353e-02
1.199999999999999956e-01 1.140750730893085318e+02 9.331776962930482533e-01 1.970471974730516468e-02
1.232106231721766670e-01 1.171529556130726348e+02 9.946248222494880054e-01 2.022336857609307106e-02
1.264212463443533385e-01 1.202324616408841393e+02 1.057787640446512301e+00 2.079791916629181170e-02
1.296318695165299961e-01 1.233135957531160756e+02 1.122844171073932529e+00 2.143090735105293576e-02
1.328424926887066815e-01 1.263963668122769235e+02 1.189980487720008195e+00 2.212477493844941176e-02
1.360531158608833391e-01 1.294807878440102229e+02 1.259390459717242283e+00 2.288187277861131880e-02
1.392637390330600244e-01 1.325668759233761591e+02 1.331275505286720007e+00 2.370446355239922906e-02
1.424743622052366820e-01 1.356546520660467934e+02 1.405844354768312821e+00 2.459472430426091691e-02
1.456849853774133674e-01 1.387441411240815512e+02 1.483312823273410963e+00 2.555474874037670652e-02
1.488956085495900250e-01 1.418353716859773783e+02 1.563903592142840360e+00 2.658654931164602941e-02
1.521062317217667104e-01 1.449283759807183856e+02 1.647845998635710130e+00 2.769205909982491026e-02
1.553168548939433680e-01 1.480231897855699685e+02 1.735375833314966476e+00 2.887313352367227789e-02
1.585274780661200533e-01 1.511198523373840601e+02 1.826735144632634533e+00 3.013155188084678041e-02
1.617381012382967109e-01 1.542184062472018411e+02 1.922172050252255682e+00 3.146901874012798805e-02
1.649487244104733685e-01 1.573188974179549575e+02 2.021940554678069990e+00 3.288716519748786926e-02
1.681593475826500539e-01 1.604213749650844534e+02 2.126300372790058901e+00 3.438755000855771987e-02
1.713699707548267392e-01 1.635258911399056103e+02 2.235516758911365365e+00 3.597166060912759811e-02
1.745805939270033968e-01 1.666325012555641649e+02 2.349860341059881730e+00 3.764091403447042405e-02
1.777912170991800545e-01 1.697412636154358268e+02 2.469606960059103962e+00 3.939665774750364391e-02
1.810018402713567398e-01 1.728522394438356571e+02 2.595037513204860868e+00 4.124017038507594296e-02
1.842124634435334252e-01 1.759654928189088707e+02 2.726437802204336958e+00 4.317266243099940337e-02
1.874230866157100828e-01 1.790810906075869298e+02 2.864098385122062496e+00 4.519527682382585426e-02
1.906337097878867404e-01 1.821991024024956687e+02 3.008314432084319812e+00 4.730908950679321712e-02
1.938443329600634257e-01 1.853196004607169698e+02 3.159385584508870082e+00 4.951510992683721968e-02
1.970549561322400833e-01 1.884426596443016990e+02 3.317615817641118792e+00 5.181428148907066961e-02
2.002655793044167409e-01 1.915683573624476708e+02 3.483313306190921832e+00 5.420748197267812735e-02
2.034762024765934263e-01 1.946967735152558987e+02 3.656790292876201498e+00 5.669552391374998307e-02
2.066868256487701117e-01 1.978279904389839317e+02 3.838362959690629683e+00 5.927915496018765218e-02
2.098974488209467693e-01 2.009620928527226056e+02 4.028351301722769229e+00 6.195905820344768666e-02
2.131080719931234269e-01 2.040991678064246457e+02 4.227079003363388487e+00 6.473585249155297539e-02
2.163186951653001122e-01 2.072393046302173900e+02 4.434873316746234195e+00 6.761009272748343124e-02
2.195293183374767976e-01 2.103825948849376744e+02 4.652064942275443649e+00 7.058227015676467320e-02
2.227399415096534552e-01 2.135291323138274038e+02 4.878987911100034047e+00 7.365281264779788284e-02
2.259505646818301128e-01 2.166790127953354386e+02 5.115979469402555324e+00 7.682208496821824051e-02
2.291611878540067981e-01 2.198323342969690088e+02 5.363379964375124764e+00 8.009038906032735217e-02
2.323718110261834835e-01 2.229891968301480176e+02 5.621532731761749169e+00 8.345796431842125718e-02
2.355824341983601411e-01 2.261497024060089132e+02 5.890783984851022836e+00 8.692498787062342969e-02
2.387930573705367987e-01 2.293139549921174023e+02 6.171482704808104458e+00 9.049157486763320657e-02
2.420036805427134841e-01 2.324820604700426827e+02 6.463980532239298249e+00 9.415777878061326600e-02
2.452143037148901417e-01 2.356541265937521530e+02 6.768631659886684915e+00 9.792359171026276954e-02
2.484249268870668270e-01 2.388302629487890840e+02 7.085792726354085858e+00 1.017889447089574267e-01
2.516355500592434846e-01 2.420105809121936318e+02 7.415822710769061743e+00 1.057537081176775084e-01
2.548461732314201700e-01 2.451951936131305843e+02 7.759082828289091793e+00 1.098176919193001588e-01
2.580567964035967998e-01 2.483842158941919251e+02 8.115936426362956979e+00 1.139806461096848217e-01
2.612674195757734852e-01 2.515777642733376354e+02 8.486748881661428712e+00 1.182422610878545721e-01
2.644780427479501705e-01 2.547759569064472771e+02 8.871887497593769822e+00 1.226021680664391156e-01
2.676886659201268559e-01 2.579789135504466344e+02 9.271721402329406558e+00 1.270599395034335000e-01
2.708992890923035413e-01 2.611867555269871559e+02 9.686621447246245964e+00 1.316150895562041290e-01
2.741099122644801711e-01 2.643996056866437812e+02 1.011696010572951643e+01 1.362670745585675691e-01
2.773205354366568565e-01 2.676175883736082710e+02 1.056311137224718344e+01 1.410152935216608949e-01
3.532935857338679320e-01 3.464180520938464269e+02 3.585007199960260493e+01 4.844949923176523621e-01
4.292666360310790630e-01 4.326897290661894999e+02 7.574453361412871288e+01 4.440946697288498113e-01
5.052396863282901940e-01 5.260284968641918795e+02 1.151874017787456808e+02 4.036943471400472605e-01
5.812127366255012140e-01 6.252157768670874702e+02 1.531304762158484891e+02 3.632940245512447097e-01
6.571857869227122340e-01 7.292308427324014701e+02 1.887444218285849615e+02 3.228937019624422700e-01
7.331588372199233650e-01 8.372041941257438111e+02 2.213712948271262064e+02 2.824933793736397192e-01
8.091318875171344960e-01 9.483862755329705578e+02 2.504911938637536082e+02 2.420930567848371129e-01
8.851049378143456270e-01 1.062125317017279258e+03 2.756975655804663461e+02 2.016927341960345621e-01
9.610779881115567580e-01 1.177850958864231643e+03 2.966781934237600922e+02 1.612924116072320113e-01
1.037051038408767667e+00 1.295061735896226764e+03 3.132001248239594133e+02 1.208920890184295716e-01
1.113024088705978798e+00 1.413369210847084105e+03 3.267672668555418909e+02 1.085285352503965184e-01
1.188997139003189929e+00 1.532587480246680116e+03 3.399705033731648314e+02 1.129591398131951918e-01
1.264970189300401060e+00 1.652669560687983903e+03 3.538014456479938303e+02 1.173897443759938791e-01
1.340943239597611969e+00 1.773601429643936399e+03 3.682660702788537037e+02 1.218203489387925387e-01
1.416916289894823100e+00 1.895370996919244362e+03 3.833704073435212649e+02 1.262509535015912121e-01
1.492889340192034231e+00 2.017967795898919803e+03 3.991205349274761716e+02 1.306815580643899133e-01
1.568862390489245362e+00 2.141382737557933979e+03 4.155225751699982766e+02 1.351121626271885867e-01
1.644835440786456493e+00 2.265607912058236707e+03 4.325826914067270081e+02 1.395427671899872601e-01
1.720808491083667402e+00 2.390636426960342760e+03 4.503070861147254504e+02 1.439733717527859336e-01
1.796781541380878533e+00 2.516462273979934707e+03 4.687019994514340624e+02 1.484039763155846070e-01
1.872754591678089664e+00 2.643080218264437008e+03 4.877737082373473072e+02 1.528345808783833082e-01
1.948727641975300795e+00 2.770485705629132099e+03 5.075285252729472631e+02 1.572651854411819816e-01
2.024700692272511926e+00 2.898674784257437295e+03 5.279727989091881000e+02 1.616957900039806550e-01
2.100673742569723057e+00 3.027644038155838643e+03 5.491129128114291689e+02 1.661263945667793562e-01
