# density  energy_density  pressure   sound_speed_squared  [All in nuclear units]
2.720000000000000022e-14 2.529924618736292620e-11 1.061056609100270887e-19 3.766610435412189122e-08
1.269999999999999890e-13 1.181251617980081254e-10 4.870113551826584858e-18 6.497781477172163475e-08
6.929999999999999754e-13 6.445728594625782745e-10 1.018299070687946017e-16 3.033770597342807186e-07
6.295000000000000137e-12 5.855111460395753757e-09 5.487150723824490656e-15 1.763710043904196507e-06
1.581000000000000150e-11 1.470523320212576141e-08 2.904239460150760759e-14 3.559434472327477622e-06
3.971999999999999958e-11 3.694456170323160790e-08 1.439340266754906811e-13 6.772854871245677111e-06
9.975999999999999982e-11 9.278976412613005154e-08 6.812143616221268841e-13 1.246890511177539320e-05
2.505999999999999928e-10 2.330928829758143313e-07 3.107749196951638608e-12 2.212095130576091967e-05
6.294000000000000186e-10 5.854398883216247602e-07 1.363250409771533549e-11 3.761981047239428883e-05
1.581000000000000021e-09 1.470619631082054101e-06 5.726014178088476303e-11 6.095350986710739404e-05
3.971999999999999932e-09 3.694861084648016046e-06 2.210019573374265380e-10 8.628023653304385055e-05
5.000000000000000105e-09 4.651201787816927976e-06 3.071485916280120014e-10 9.387863480799757518e-05
9.975999999999999465e-09 9.280587964640925786e-06 8.385361004129998845e-10 1.356922228656245837e-04
1.989999999999999952e-08 1.851419242998081003e-05 2.287763168863418088e-09 1.782101978513718314e-04
3.972999999999999908e-08 3.696699295748789187e-05 6.061583099087538954e-09 2.308134738384234820e-04
7.925999999999999637e-08 7.375765469301719828e-05 1.575347858094044765e-08 2.960532096713864875e-04
1.580999999999999930e-07 1.471491184379128891e-04 3.910429618672550719e-08 3.402859755131850544e-04
1.991000000000000027e-07 1.853209783927820692e-04 5.252045687899177454e-08 3.626488188833278743e-04
3.155999999999999938e-07 2.938002528823880299e-04 9.730770378831954314e-08 4.630767356912104081e-04
5.000999999999999849e-07 4.656344063839075714e-04 1.837494945860225819e-07 5.430301232045120323e-04
6.295999999999999732e-07 5.862651417037388971e-04 2.503103884558263872e-07 5.605192962670089638e-04
9.666999999999999941e-07 9.003386739730535665e-04 4.324450868778576936e-07 5.993081670211623108e-04
1.531999999999999901e-06 1.427170885631398036e-03 7.780217275717420968e-07 7.125938556504039095e-04
2.506999999999999883e-06 2.336134972129507662e-03 1.471005394641589826e-06 8.121876172121876309e-04
3.974000000000000407e-06 3.704315759716615697e-03 2.695705763844323844e-06 9.780674166779417152e-04
4.830000000000000343e-06 4.502887798316278223e-03 3.503988717694660908e-06 1.046253037768318664e-03
6.080999999999999885e-06 5.670217999231269741e-03 4.731126407333307547e-06 1.056224360839501646e-03
7.930000000000000308e-06 7.396012414119570652e-03 6.599662989063778187e-06 1.109203753630785610e-03
9.982000000000000313e-06 9.311815711689977113e-03 8.879881089227186733e-06 1.271216815433141075e-03
1.256999999999999993e-05 1.172874412604260098e-02 1.207676739913533738e-05 1.374195438212825332e-03
1.521999999999999997e-05 1.420427250933824909e-02 1.547541302213394990e-05 1.371610497379100249e-03
1.991000000000000080e-05 1.858690797761085312e-02 2.160710455847765458e-05 1.426578142835871997e-03
2.506999999999999883e-05 2.341050104039446925e-02 2.908031724375689851e-05 1.672007475975408053e-03
2.790999999999999875e-05 2.606604784714952258e-02 3.357009132255487721e-05 1.709425557744154774e-03
3.806999999999999973e-05 3.556967988784798945e-02 4.986781576435106434e-05 1.720407281314112165e-03
5.063000000000000145e-05 4.732434580343149871e-02 7.073400252905581275e-05 1.829889149838781265e-03
6.592000000000000583e-05 6.164112392498975052e-02 9.765037643900635188e-05 1.930242980462695823e-03
8.433000000000000066e-05 7.888776783401378612e-02 1.317235490470395893e-04 2.021055815200022837e-03
1.062000000000000064e-04 9.938561165478684845e-02 1.740088341640037047e-04 2.104789529260958983e-03
1.321000000000000126e-04 1.236720406455826121e-01 2.260189757651373944e-04 2.178291718403657477e-03
1.623999999999999901e-04 1.520974545104751274e-01 2.888169908545388338e-04 2.240170365918073281e-03
1.689999999999999879e-04 1.582907717069566844e-01 3.027354772999506964e-04 2.254509350360745651e-03
1.758999999999999930e-04 1.647661861691531171e-01 3.173785841705756782e-04 2.268169273277113179e-03
1.830000000000000029e-04 1.714298948183871907e-01 3.325196584577469103e-04 2.276170334580628063e-03
1.901999999999999882e-04 1.781880600978280049e-01 3.479577791899843742e-04 2.292561569242367037e-03
1.977000000000000079e-04 1.852284385240466902e-01 3.641242634600037713e-04 2.299943765467868384e-03
2.054000000000000053e-04 1.924572004474696396e-01 3.808304060475003897e-04 2.322187632288155723e-03
2.079000000000000119e-04 1.948043378760714872e-01 3.864137987380476553e-04 2.435429768083530178e-03
2.081999999999999921e-04 1.950859988578999005e-01 3.870314100985603909e-04 1.950065624557156818e-03
2.090999999999999868e-04 1.959309855029948977e-01 3.881261957135444685e-04 6.411875526909013856e-04
2.159999999999999919e-04 2.024093317906446865e-01 3.940874488768042125e-04 1.199166870571831411e-03
2.231000000000000019e-04 2.090756740932291913e-01 4.013938420547467825e-04 9.928616047829054436e-04
2.311000000000000066e-04 2.165873044433437034e-01 4.085241694843774404e-04 9.056166966301716637e-04
2.401000000000000085e-04 2.250381721984245909e-01 4.159700687886608468e-04 8.565463878902855599e-04
2.500000000000000052e-04 2.343344406330727658e-01 4.237602369176299592e-04 8.194318812157330018e-04
2.642999999999999733e-04 2.477629128650125634e-01 4.345596643180389446e-04 7.890063723638815647e-04
3.052999999999999941e-04 2.862671839140227270e-01 4.644058706720978241e-04 7.612775562167708662e-04
3.533000000000000224e-04 3.313503829113090826e-01 4.987577676308450197e-04 7.626578558207241024e-04
4.075999999999999871e-04 3.823564017794535141e-01 5.381334366106255759e-04 7.813048116943254948e-04
4.679999999999999915e-04 4.390986251953180042e-01 5.832692638200615834e-04 8.096035963157804938e-04
5.341000000000000261e-04 5.012024644415256081e-01 6.346556894078133086e-04 8.452514814113673558e-04
6.059000000000000366e-04 5.686690698184251325e-01 6.930641302632923034e-04 8.862253587289389486e-04
7.661000000000000275e-04 7.192254882508629654e-01 8.328184776562496576e-04 9.702780530519144065e-04
1.262000000000000101e-03 1.185459127778160093e+00 1.338484980802662205e-03 1.198863597978450275e-03
1.894999999999999983e-03 1.780909071169781921e+00 2.123481960401060308e-03 1.437771491635827115e-03
2.673000000000000029e-03 2.513147344746868850e+00 3.261860252001994032e-03 1.671524566936786766e-03
3.605999999999999830e-03 3.391736073717691369e+00 4.828136641022434151e-03 1.893900408978071038e-03
4.709999999999999777e-03 4.431905410739045870e+00 6.903512974832482635e-03 2.096551352830673849e-03
7.496000000000000059e-03 7.058993649504918366e+00 1.289742191321638018e-02 2.466596387205546859e-03
1.119999999999999989e-02 1.055540362104863661e+01 2.212077014004794340e-02 2.809304433764861584e-03
1.600000000000000033e-02 1.509117352747679952e+01 3.559566804390756900e-02 3.132325055719984222e-03
2.206999999999999934e-02 2.083310616724802244e+01 5.457322122755020599e-02 3.477840948757840792e-03
2.947999999999999926e-02 2.785007348564149154e+01 8.049103664263126956e-02 3.909302116317729670e-03
4.268000000000000266e-02 4.036707211535221518e+01 1.353887601042819133e-01 4.862066536253286525e-03
6.219999999999999835e-02 5.891246509830522626e+01 2.419691225623893105e-01 6.630786177272363080e-03
7.316999999999999893e-02 6.935151695866235855e+01 3.161896974764099033e-01 7.588671314871411888e-03
7.595999999999999974e-02 7.200836722020332559e+01 3.371250777904805096e-01 8.170805199905810390e-03
7.685877551020407761e-02 7.286441679780590164e+01 3.442057335332868173e-01 8.371816590269013161e-03
7.775755102040816935e-02 7.372055018623963463e+01 3.514596116446664920e-01 8.573847732622884993e-03
7.865632653061224722e-02 7.457676842466612754e+01 3.588876917320567017e-01 8.777047375667881846e-03
7.955510204081632508e-02 7.543307254042082377e+01 3.664910815823542167e-01 8.981564268104475293e-03
8.045387755102040295e-02 7.628946355086247877e+01 3.742710172275467984e-01 9.187547158633126501e-03
8.135265306122449469e-02 7.714594246514059250e+01 3.822288630128604092e-01 9.395144795954303574e-03
8.225142857142857256e-02 7.800251028588571955e+01 3.903661116673740605e-01 9.604505928768462472e-03
8.315020408163265042e-02 7.885916801082660754e+01 3.986843843770664919e-01 9.815779305776073035e-03
8.404897959183672829e-02 7.971591663433785868e+01 4.071854308602646522e-01 1.002911367567759469e-02
8.494775510204082003e-02 8.057275714892311669e+01 4.158711294454770502e-01 1.024465778717349729e-02
8.584653061224489790e-02 8.142969054663497275e+01 4.247434871515998189e-01 1.046256038896424545e-02
8.674530612244897576e-02 8.228671782043750227e+01 4.338046397704950485e-01 1.068297022975029167e-02
8.764408163265305363e-02 8.314383996551269718e+01 4.430568519519428317e-01 1.090603605823211100e-02
8.854285714285714537e-02 8.400105798051369277e+01 4.525025172909807325e-01 1.113190662311016980e-02
8.944163265306122323e-02 8.485837286876912344e+01 4.621441584176463890e-01 1.136073067308492231e-02
9.034040816326530110e-02 8.571578563943876361e+01 4.719844270891491167e-01 1.159265695685683661e-02
9.123918367346939284e-02 8.657329730862524286e+01 4.820261042844967148e-01 1.182783422312637216e-02
9.213795918367347071e-02 8.743090890044170749e+01 4.922721003016133356e-01 1.206641122059400398e-02
9.303673469387754857e-02 8.828862144803997580e+01 5.027254548569886072e-01 1.230853669796018457e-02
9.393551020408162644e-02 8.914643599459908785e+01 5.133893371878994749e-01 1.255435940392538377e-02
9.483428571428570431e-02 9.000435359427727633e+01 5.242670461572546126e-01 1.280402808719006448e-02
9.573306122448979605e-02 9.086237531312892202e+01 5.353620103611137493e-01 1.305769149645469480e-02
9.663183673469387391e-02 9.172050222998807101e+01 5.466777882389359799e-01 1.331549838041973070e-02
9.753061224489795178e-02 9.257873543732003441e+01 5.582180681866210081e-01 1.357759748778564028e-02
9.842938775510204352e-02 9.343707604204266204e+01 5.699866686724016640e-01 1.384413756725288991e-02
9.932816326530612139e-02 9.429552516631872550e+01 5.819875383556567527e-01 1.411526736752194075e-02
1.002269387755101993e-01 9.515408394832087424e+01 5.942247562087153989e-01 1.439113563729325224e-02
1.011257142857142910e-01 9.601275354296988951e+01 6.067025316417213876e-01 1.467189112526730288e-02
1.020244897959183689e-01 9.687153512264792710e+01 6.194252046306352177e-01 1.495768258014453650e-02
1.029232653061224467e-01 9.773042987788826963e+01 6.323972458484530268e-01 1.524865875062543161e-02
1.038220408163265246e-01 9.858943901804116194e+01 6.456232567997189919e-01 1.554496838541044590e-02
1.047208163265306025e-01 9.944856377191888441e+01 6.591079699584174723e-01 1.584676023320005095e-02
1.056195918367346942e-01 1.003078053884189842e+02 6.728562489093283805e-01 1.615418304269470098e-02
1.065183673469387721e-01 1.011671651371276965e+02 6.868730884929321601e-01 1.646738556259486758e-02
1.074171428571428499e-01 1.020266443089050483e+02 7.011636149539566265e-01 1.678651654160100148e-02
1.083159183673469417e-01 1.028862442164501800e+02 7.157330860936527150e-01 1.711172472841359163e-02
1.092146938775510195e-01 1.037459661948504248e+02 7.305868914258949465e-01 1.744315887173307489e-02
1.101134693877550974e-01 1.046058116021132065e+02 7.457305523372020906e-01 1.778096772025992978e-02
1.110122448979591891e-01 1.054657818196816947e+02 7.611697222507720628e-01 1.812530002269462093e-02
1.119110204081632531e-01 1.063258782529352970e+02 7.769101867946300866e-01 1.847630452773760604e-02
1.128097959183673449e-01 1.071861023316752011e+02 7.929578639739938151e-01 1.883412998408935321e-02
1.137085714285714227e-01 1.080464555105965871e+02 8.093188043479482285e-01 1.919892514045032361e-02
1.146073469387755006e-01 1.089069392697461893e+02 8.259991912105439926e-01 1.957083874552098188e-02
1.155061224489795924e-01 1.097675551149678910e+02 8.430053407764146467e-01 1.995001954800180305e-02
1.164048979591836702e-01 1.106283045783351611e+02 8.603437023710214238e-01 2.033661629659323095e-02
1.173036734693877481e-01 1.114891892185725766e+02 8.780208586256357250e-01 2.073077773999574061e-02
1.182024489795918398e-01 1.123502106214648819e+02 8.960435256771621670e-01 2.113265262690980015e-02
1.191012244897959177e-01 1.132113704002558023e+02 9.144185533729142223e-01 2.154238970603586378e-02
1.199999999999999956e-01 1.140726701960361424e+02 9.331529254804553641e-01 2.196013772607440309e-02
1.231773307726269640e-01 1.171186740096485011e+02 1.002367467745977070e+00 2.348558754848055485e-02
1.263546615452539323e-01 1.201665237680014968e+02 1.076307664264677388e+00 2.503356717271614310e-02
1.295319923178809007e-01 1.232162928068998582e+02 1.155046316864382749e+00 2.660179902019093115e-02
1.327093230905078414e-01 1.262680525713852404e+02 1.238649780240418607e+00 2.818806413003297623e-02
1.358866538631348098e-01 1.293218725990544442e+02 1.327178119944039780e+00 2.979020260235816508e-02
1.390639846357617782e-01 1.323778205086310891e+02 1.420685270272112666e+00 3.140611392378010736e-02
1.422413154083887465e-01 1.354359619931881582e+02 1.519219191890834431e+00 3.303375718584125598e-02
1.454186461810157149e-01 1.384963608174932688e+02 1.622822029050261960e+00 3.467115120599637001e-02
1.485959769536426833e-01 1.415590788190157525e+02 1.731530266267184537e+00 3.631637455985002594e-02
1.517733077262696240e-01 1.446241759121917880e+02 1.845374884371792756e+00 3.796756553252878669e-02
1.549506384988966201e-01 1.476917100955924127e+02 1.964381515829046077e+00 3.962292199633095369e-02
1.581279692715235607e-01 1.507617374616797861e+02 2.088570599258877447e+00 4.128070122113238621e-02
1.613053000441505291e-01 1.538343122088779751e+02 2.217957533090770816e+00 4.293921962342359122e-02
1.644826308167774975e-01 1.569094866557077523e+02 2.352552828297762133e+00 4.459685245929873032e-02
1.676599615894044659e-01 1.599873112567727560e+02 2.492362260163068388e+00 4.625203346620929828e-02
1.708372923620314343e-01 1.630678346203998501e+02 2.637387019039150182e+00 4.790325445782200875e-02
1.740146231346583749e-01 1.661511035277615349e+02 2.787623860064434744e+00 4.954906487588078834e-02
1.771919539072853711e-01 1.692371629533265889e+02 2.943065251807159832e+00 5.118807130256141508e-02
1.803692846799123117e-01 1.723260560864981414e+02 3.103699523808927552e+00 5.281893693641891846e-02
1.835466154525392801e-01 1.754178243543184408e+02 3.269511013002817545e+00 5.444038103466455197e-02
1.867239462251662485e-01 1.785125074451243279e+02 3.440480208982055199e+00 5.605117832416083717e-02
1.899012769977932169e-01 1.816101433330566977e+02 3.616583898095758531e+00 5.765015838319684921e-02
1.930786077704201853e-01 1.847107683033293881e+02 3.797795306347812705e+00 5.923620499579270587e-02
1.962559385430471259e-01 1.878144169781770927e+02 3.984084241073813537e+00 6.080825547998373881e-02
1.994332693156741221e-01 1.909211223434063243e+02 4.175417231369174864e+00 6.236529999125157986e-02
2.026106000883010627e-01 1.940309157754822706e+02 4.371757667238913569e+00 6.390638080199530224e-02
2.057879308609280311e-01 1.971438270690886441e+02 4.573065937436576078e+00 6.543059155767717849e-02
2.089652616335549995e-01 2.002598844651026013e+02 4.779299565955828832e+00 6.693707651002606118e-02
2.121425924061819679e-01 2.033791146789340587e+02 4.990413347134041722e+00 6.842502972744171630e-02
2.153199231788089363e-01 2.065015429291803741e+02 5.206359479322177464e+00 6.989369428251401839e-02
2.184972539514358769e-01 2.096271929665502967e+02 5.427087697069878480e+00 7.134236141634946182e-02
2.216745847240628731e-01 2.127560871030190413e+02 5.652545401768721334e+00 7.277036967918354415e-02
2.248519154966898137e-01 2.158882462411700942e+02 5.882677790690060249e+00 7.417710404655580847e-02
2.280292462693167821e-01 2.190236899036924854e+02 6.117427984347103553e+00 7.556199501012549058e-02
2.312065770419437505e-01 2.221624362629964651e+02 6.356737152103301369e+00 7.692451764201833908e-02
2.343839078145707189e-01 2.253045021709143612e+02 6.600544635941449023e+00 7.826419063141318300e-02
2.375612385871976873e-01 2.284499031884562044e+02 6.848788072299564433e+00 7.958057529190271095e-02
2.407385693598246279e-01 2.315986536155895408e+02 7.101403511870961083e+00 8.087327453799518506e-02
2.439159001324516240e-01 2.347507665210150094e+02 7.358325537256884097e+00 8.214193182896249723e-02
2.470932309050785647e-01 2.379062537719072736e+02 7.619487378350564555e+00 8.338623007808686205e-02
2.502705616777055608e-01 2.410651260635965230e+02 7.884821025321875787e+00 8.460589052520971209e-02
2.534478924503325015e-01 2.442273929491587978e+02 8.154257339061359744e+00 8.580067157034404479e-02
2.566252232229594421e-01 2.473930628688933666e+02 8.427726158932161482e+00 8.697036756597897877e-02
2.598025539955864383e-01 2.505621431796546403e+02 8.705156407667283602e+00 8.811480756557231453e-02
2.629798847682134344e-01 2.537346401840147507e+02 8.986476193238583932e+00 8.923385402560782276e-02
2.661572155408403750e-01 2.569105591592287396e+02 9.271612907512437829e+00 9.032740145847502344e-02
2.693345463134673157e-01 2.600899043859734547e+02 9.560493321495178165e+00 9.139537503332134660e-02
2.725118770860942563e-01 2.632726791768340036e+02 9.853043676959412522e+00 9.243772912192087243e-02
2.756892078587212525e-01 2.664588859045067579e+02 1.014918977423009494e+01 9.345444578650942413e-02
3.516955505554820727e-01 3.441252550564064450e+02 2.200557404471771150e+01 2.096145567320880920e-01
4.277018932522428374e-01 4.253194934781022880e+02 4.388024330482979707e+01 3.257746676776666628e-01
5.037082359490036021e-01 5.113145239033578378e+02 7.722665881743188265e+01 4.451159882543148094e-01
5.797145786457644778e-01 6.034867701062719334e+02 1.337448300560926100e+02 7.604811845847616603e-01
6.557209213425252425e-01 7.049020743384928664e+02 2.089587875151185301e+02 7.261631524705924878e-01
7.317272640392860072e-01 8.151704044899026940e+02 2.840741572178187084e+02 6.420466500906318874e-01
8.077336067360467720e-01 9.330225973899041492e+02 3.545273713644926374e+02 5.579301477106713980e-01
8.837399494328075367e-01 1.057428909095379140e+03 4.294184781225971506e+02 6.426928092260184577e-01
9.597462921295683014e-01 1.188987279800168380e+03 5.312690481619341654e+02 8.919605263426935160e-01
1.035752634826329066e+00 1.329830970312913223e+03 6.366320821769384111e+02 6.182099995936944925e-01
1.111758977523090053e+00 1.477301813020999134e+03 7.220883102757863981e+02 5.433646693276258377e-01
1.187765320219850818e+00 1.630489260650476353e+03 8.089076952240470746e+02 5.889621948336751789e-01
1.263771662916611582e+00 1.789558084242387622e+03 9.063187669337437455e+02 6.345597203397245201e-01
1.339778005613372347e+00 1.954812846933735273e+03 1.015058748544507466e+03 6.801572458457738612e-01
1.415784348310133112e+00 2.126566661478764217e+03 1.135912588624152704e+03 7.257547713518230914e-01
1.491790691006893876e+00 2.305142440153153075e+03 1.269715458380947894e+03 7.713522968578725436e-01
1.567797033703654641e+00 2.490874021305142378e+03 1.417355436371052747e+03 8.169498223639217738e-01
1.643803376400415406e+00 2.684107211615890719e+03 1.579776379678446119e+03 8.625473478699711150e-01
1.719809719097176171e+00 2.885200772279268676e+03 1.757980983436473252e+03 9.081448733760204561e-01
1.795816061793936935e+00 3.094527369939453820e+03 1.953034032721778203e+03 9.537423988820697973e-01
1.871822404490697922e+00 3.312472794859334954e+03 2.162466063111739004e+03 9.676124014466708223e-01
1.947828747187458687e+00 3.539148910540711768e+03 2.378766609293718830e+03 9.418210948018876927e-01
2.023835089884219673e+00 3.774309291101370036e+03 2.597105710177836045e+03 9.160297881571044520e-01
2.099841432580980438e+00 4.017699110271246809e+03 2.816815807829439564e+03 8.902384815123213224e-01
