# density  energy_density  pressure   sound_speed_squared  [All in nuclear units]
2.720000000000000022e-14 2.529924618736292620e-11 1.061056609100270887e-19 3.766610435412189122e-08
1.269999999999999890e-13 1.181251617980081254e-10 4.870113551826584858e-18 6.497781477172163475e-08
6.929999999999999754e-13 6.445728594625782745e-10 1.018299070687946017e-16 3.033770597342807186e-07
6.295000000000000137e-12 5.855111460395753757e-09 5.487150723824490656e-15 1.763710043904196507e-06
1.581000000000000150e-11 1.470523320212576141e-08 2.904239460150760759e-14 3.559434472327477622e-06
3.971999999999999958e-11 3.694456170323160790e-08 1.439340266754906811e-13 6.772854871245677111e-06
9.975999999999999982e-11 9.278976412613005154e-08 6.812143616221268841e-13 1.246890511177539320e-05
2.505999999999999928e-10 2.330928829758143313e-07 3.107749196951638608e-12 2.212095130576091967e-05
6.294000000000000186e-10 5.854398883216247602e-07 1.363250409771533549e-11 3.761981047239428883e-05
1.581000000000000021e-09 1.470619631082054101e-06 5.726014178088476303e-11 6.095350986710739404e-05
3.971999999999999932e-09 3.694861084648016046e-06 2.210019573374265380e-10 8.628023653304385055e-05
5.000000000000000105e-09 4.651201787816927976e-06 3.071485916280120014e-10 9.387863480799757518e-05
9.975999999999999465e-09 9.280587964640925786e-06 8.385361004129998845e-10 1.356922228656245837e-04
1.989999999999999952e-08 1.851419242998081003e-05 2.287763168863418088e-09 1.782101978513718314e-04
3.972999999999999908e-08 3.696699295748789187e-05 6.061583099087538954e-09 2.308134738384234820e-04
7.925999999999999637e-08 7.375765469301719828e-05 1.575347858094044765e-08 2.960532096713864875e-04
1.580999999999999930e-07 1.471491184379128891e-04 3.910429618672550719e-08 3.402859755131850544e-04
1.991000000000000027e-07 1.853209783927820692e-04 5.252045687899177454e-08 3.626488188833278743e-04
3.155999999999999938e-07 2.938002528823880299e-04 9.730770378831954314e-08 4.630767356912104081e-04
5.000999999999999849e-07 4.656344063839075714e-04 1.837494945860225819e-07 5.430301232045120323e-04
6.295999999999999732e-07 5.862651417037388971e-04 2.503103884558263872e-07 5.605192962670089638e-04
9.666999999999999941e-07 9.003386739730535665e-04 4.324450868778576936e-07 5.993081670211623108e-04
1.531999999999999901e-06 1.427170885631398036e-03 7.780217275717420968e-07 7.125938556504039095e-04
2.506999999999999883e-06 2.336134972129507662e-03 1.471005394641589826e-06 8.121876172121876309e-04
3.974000000000000407e-06 3.704315759716615697e-03 2.695705763844323844e-06 9.780674166779417152e-04
4.830000000000000343e-06 4.502887798316278223e-03 3.503988717694660908e-06 1.046253037768318664e-03
6.080999999999999885e-06 5.670217999231269741e-03 4.731126407333307547e-06 1.056224360839501646e-03
7.930000000000000308e-06 7.396012414119570652e-03 6.599662989063778187e-06 1.109203753630785610e-03
9.982000000000000313e-06 9.311815711689977113e-03 8.879881089227186733e-06 1.271216815433141075e-03
1.256999999999999993e-05 1.172874412604260098e-02 1.207676739913533738e-05 1.374195438212825332e-03
1.521999999999999997e-05 1.420427250933824909e-02 1.547541302213394990e-05 1.371610497379100249e-03
1.991000000000000080e-05 1.858690797761085312e-02 2.160710455847765458e-05 1.426578142835871997e-03
2.506999999999999883e-05 2.341050104039446925e-02 2.908031724375689851e-05 1.672007475975408053e-03
2.790999999999999875e-05 2.606604784714952258e-02 3.357009132255487721e-05 1.709425557744154774e-03
3.806999999999999973e-05 3.556967988784798945e-02 4.986781576435106434e-05 1.720407281314112165e-03
5.063000000000000145e-05 4.732434580343149871e-02 7.073400252905581275e-05 1.829889149838781265e-03
6.592000000000000583e-05 6.164112392498975052e-02 9.765037643900635188e-05 1.930242980462695823e-03
8.433000000000000066e-05 7.888776783401378612e-02 1.317235490470395893e-04 2.021055815200022837e-03
1.062000000000000064e-04 9.938561165478684845e-02 1.740088341640037047e-04 2.104789529260958983e-03
1.321000000000000126e-04 1.236720406455826121e-01 2.260189757651373944e-04 2.178291718403657477e-03
1.623999999999999901e-04 1.520974545104751274e-01 2.888169908545388338e-04 2.240170365918073281e-03
1.689999999999999879e-04 1.582907717069566844e-01 3.027354772999506964e-04 2.254509350360745651e-03
1.758999999999999930e-04 1.647661861691531171e-01 3.173785841705756782e-04 2.268169273277113179e-03
1.830000000000000029e-04 1.714298948183871907e-01 3.325196584577469103e-04 2.276170334580628063e-03
1.901999999999999882e-04 1.781880600978280049e-01 3.479577791899843742e-04 2.292561569242367037e-03
1.977000000000000079e-04 1.852284385240466902e-01 3.641242634600037713e-04 2.299943765467868384e-03
2.054000000000000053e-04 1.924572004474696396e-01 3.808304060475003897e-04 2.322187632288155723e-03
2.079000000000000119e-04 1.948043378760714872e-01 3.864137987380476553e-04 2.435429768083530178e-03
2.081999999999999921e-04 1.950859988578999005e-01 3.870314100985603909e-04 1.950065624557156818e-03
2.090999999999999868e-04 1.959309855029948977e-01 3.881261957135444685e-04 6.411875526909013856e-04
2.159999999999999919e-04 2.024093317906446865e-01 3.940874488768042125e-04 1.199166870571831411e-03
2.231000000000000019e-04 2.090756740932291913e-01 4.013938420547467825e-04 9.928616047829054436e-04
2.311000000000000066e-04 2.165873044433437034e-01 4.085241694843774404e-04 9.056166966301716637e-04
2.401000000000000085e-04 2.250381721984245909e-01 4.159700687886608468e-04 8.565463878902855599e-04
2.500000000000000052e-04 2.343344406330727658e-01 4.237602369176299592e-04 8.194318812157330018e-04
2.642999999999999733e-04 2.477629128650125634e-01 4.345596643180389446e-04 7.890063723638815647e-04
3.052999999999999941e-04 2.862671839140227270e-01 4.644058706720978241e-04 7.612775562167708662e-04
3.533000000000000224e-04 3.313503829113090826e-01 4.987577676308450197e-04 7.626578558207241024e-04
4.075999999999999871e-04 3.823564017794535141e-01 5.381334366106255759e-04 7.813048116943254948e-04
4.679999999999999915e-04 4.390986251953180042e-01 5.832692638200615834e-04 8.096035963157804938e-04
5.341000000000000261e-04 5.012024644415256081e-01 6.346556894078133086e-04 8.452514814113673558e-04
6.059000000000000366e-04 5.686690698184251325e-01 6.930641302632923034e-04 8.862253587289389486e-04
7.661000000000000275e-04 7.192254882508629654e-01 8.328184776562496576e-04 9.702780530519144065e-04
1.262000000000000101e-03 1.185459127778160093e+00 1.338484980802662205e-03 1.198863597978450275e-03
1.894999999999999983e-03 1.780909071169781921e+00 2.123481960401060308e-03 1.437771491635827115e-03
2.673000000000000029e-03 2.513147344746868850e+00 3.261860252001994032e-03 1.671524566936786766e-03
3.605999999999999830e-03 3.391736073717691369e+00 4.828136641022434151e-03 1.893900408978071038e-03
4.709999999999999777e-03 4.431905410739045870e+00 6.903512974832482635e-03 2.096551352830673849e-03
7.496000000000000059e-03 7.058993649504918366e+00 1.289742191321638018e-02 2.466596387205546859e-03
1.119999999999999989e-02 1.055540362104863661e+01 2.212077014004794340e-02 2.809304433764861584e-03
1.600000000000000033e-02 1.509117352747679952e+01 3.559566804390756900e-02 3.132325055719984222e-03
2.206999999999999934e-02 2.083310616724802244e+01 5.457322122755020599e-02 3.477840948757840792e-03
2.947999999999999926e-02 2.785007348564149154e+01 8.049103664263126956e-02 3.909302116317729670e-03
4.268000000000000266e-02 4.036707211535221518e+01 1.353887601042819133e-01 4.862066536253286525e-03
6.219999999999999835e-02 5.891246509830522626e+01 2.419691225623893105e-01 6.630786177272363080e-03
7.316999999999999893e-02 6.935151695866235855e+01 3.161896974764099033e-01 7.588671314871411888e-03
7.595999999999999974e-02 7.200836722020332559e+01 3.371250777904805096e-01 8.170805199905810390e-03
7.685877551020407761e-02 7.286441678327658167e+01 3.442032470886542961e-01 8.366008044500996069e-03
7.775755102040816935e-02 7.372055008980470348e+01 3.514480480029094078e-01 8.558453281533944315e-03
7.865632653061224722e-02 7.457676808533932444e+01 3.588572977479543291e-01 8.748462502720846107e-03
7.955510204081632508e-02 7.543307167044223149e+01 3.664290884039984042e-01 8.936357299777904564e-03
8.045387755102040295e-02 7.628946170531627047e+01 3.741617870215149244e-01 9.122459264421317604e-03
8.135265306122449469e-02 7.714593901423083366e+01 3.820540357321809410e-01 9.307089988367284877e-03
8.225142857142857256e-02 7.800250438975263023e+01 3.901047518654926494e-01 9.490571063331999097e-03
8.315020408163265042e-02 7.885915859679352025e+01 3.983131280706206923e-01 9.673224081031658178e-03
8.404897959183672829e-02 7.971590237648381105e+01 4.066786324431264643e-01 9.855370633182468712e-03
8.494775510204082003e-02 8.057273644988185879e+01 4.152010086562187841e-01 1.003733231150062341e-02
8.584653061224489790e-02 8.142966152152787629e+01 4.238802760962792071e-01 1.021943070770231499e-02
8.674530612244897576e-02 8.228667828285014707e+01 4.327167300024355456e-01 1.040198741350374829e-02
8.764408163265305363e-02 8.314378741543205820e+01 4.417109416100037378e-01 1.058532402062111952e-02
8.854285714285714537e-02 8.400098959414566480e+01 4.508637582976638969e-01 1.076976212077063177e-02
8.944163265306122323e-02 8.485828549016065381e+01 4.601763037382732291e-01 1.095562330566846911e-02
9.034040816326530110e-02 8.571567577383309811e+01 4.696499780532578661e-01 1.114322916703084330e-02
9.123918367346939284e-02 8.657316111748096432e+01 4.792864579705558570e-01 1.133290129657394882e-02
9.213795918367347071e-02 8.743074219805187397e+01 4.890876969861193135e-01 1.152496128601397836e-02
9.303673469387754857e-02 8.828841969968853221e+01 4.990559255290143992e-01 1.171973072706713678e-02
9.393551020408162644e-02 8.914619431619613010e+01 5.091936511301817792e-01 1.191753121144961854e-02
9.483428571428570431e-02 9.000406675341770324e+01 5.195036585949519559e-01 1.211868433087762154e-02
9.573306122448979605e-02 9.086203773152031715e+01 5.299890101794324515e-01 1.232351167706734890e-02
9.663183673469387391e-02 9.172010798719725244e+01 5.406530457709064486e-01 1.253233484173498988e-02
9.753061224489795178e-02 9.257827827579050961e+01 5.514993830724095325e-01 1.274547541659674585e-02
9.842938775510204352e-02 9.343654937333617738e+01 5.625319177916645597e-01 1.296325499336881994e-02
9.932816326530612139e-02 9.429492207853675723e+01 5.737548238345809848e-01 1.318599516376740138e-02
1.002269387755101993e-01 9.515339721466469314e+01 5.851725535035431358e-01 1.341401751950869678e-02
1.011257142857142910e-01 9.601197563139811564e+01 5.967898377007241351e-01 1.364764365230890231e-02
1.020244897959183689e-01 9.687065820659474014e+01 6.086116861366847042e-01 1.388719515388421068e-02
1.029232653061224467e-01 9.772944584800346490e+01 6.206433875445317438e-01 1.413299361595082501e-02
1.038220408163265246e-01 9.858833949491938142e+01 6.328905098999206835e-01 1.438536063022493802e-02
1.047208163265306025e-01 9.944734011978266608e+01 6.453589006472070233e-01 1.464461778842275283e-02
1.056195918367346942e-01 1.003064487297247780e+02 6.580546869320621495e-01 1.491108668226046735e-02
1.065183673469387721e-01 1.011656663680641373e+02 6.709842758408803842e-01 1.518508890345427777e-02
1.074171428571428499e-01 1.020249941157531026e+02 6.841543546473219939e-01 1.546694604372038026e-02
1.083159183673469417e-01 1.028844330927788917e+02 6.975718910663398775e-01 1.575697969477497795e-02
1.092146938775510195e-01 1.037439844595198650e+02 7.112441335160554212e-01 1.605551144833426355e-02
1.101134693877550974e-01 1.046036494180594190e+02 7.251786113878599949e-01 1.636286289611444192e-02
1.110122448979591891e-01 1.054634292134597615e+02 7.393831353251215655e-01 1.667935562983170750e-02
1.119110204081632531e-01 1.063233251349955708e+02 7.538657975108922216e-01 1.700531124120224433e-02
1.128097959183673449e-01 1.071833385173515865e+02 7.686349719650231727e-01 1.734105132194227808e-02
1.137085714285714227e-01 1.080434707417834801e+02 7.836993148510889018e-01 1.768689746376798239e-02
1.146073469387755006e-01 1.089037232372454014e+02 7.990677647935534589e-01 1.804317125839556904e-02
1.155061224489795924e-01 1.097640974814836454e+02 8.147495432055963382e-01 1.841019429754123943e-02
1.164048979591836702e-01 1.106245950020996247e+02 8.307541546280386990e-01 1.878828817292117759e-02
1.173036734693877481e-01 1.114852173775826714e+02 8.470913870798144618e-01 1.917777447625158491e-02
1.182024489795918398e-01 1.123459662383134372e+02 8.637713124204329240e-01 1.957897479924866971e-02
1.191012244897959177e-01 1.132068432675396821e+02 8.808042867248925267e-01 1.999221073362861950e-02
1.199999999999999956e-01 1.140678502023261558e+02 8.982009506715121772e-01 2.041780387110763914e-02
1.212744856137391303e-01 1.152890055914999721e+02 9.235135362712738605e-01 2.103891542462794917e-02
1.225489712274782650e-01 1.165104310182883296e+02 9.495942182605704440e-01 2.166634157459098806e-02
1.238234568412174136e-01 1.177321317046918949e+02 9.764511273191656127e-01 2.230002372971221988e-02
1.250979424549565344e-01 1.189541128486140025e+02 1.004092338475052859e+00 2.293990562655395110e-02
1.263724280686956969e-01 1.201763796240451256e+02 1.032525874028507928e+00 2.358593333797462041e-02
1.276469136824348316e-01 1.213989371812690905e+02 1.061759706486198107e+00 2.423805528107111223e-02
1.289213992961739663e-01 1.226217906470909895e+02 1.091801761505054813e+00 2.489622222462543888e-02
1.301958849099131010e-01 1.238449451250847915e+02 1.122659920845588299e+00 2.556038729606621360e-02
1.314703705236522358e-01 1.250684056958601644e+02 1.154342025334367028e+00 2.623050598795819907e-02
1.327448561373913705e-01 1.262921774173480003e+02 1.186855877835375939e+00 2.690653616402933004e-02
1.340193417511305052e-01 1.275162653251035181e+02 1.220209246229985833e+00 2.758843806474507027e-02
1.352938273648696677e-01 1.287406744326256387e+02 1.254409866405270524e+00 2.827617431244068558e-02
1.365683129786088024e-01 1.299654097316938817e+02 1.289465445250418618e+00 2.896970991602202533e-02
1.378427985923479371e-01 1.311904761927187621e+02 1.325383663661005684e+00 2.966901227524135209e-02
1.391172842060870718e-01 1.324158787651089426e+02 1.362172179550876328e+00 3.037405118455994979e-02
1.403917698198262065e-01 1.336416223776508048e+02 1.399838630871420353e+00 3.108479883660514656e-02
1.416662554335653412e-01 1.348677119389036250e+02 1.438390638638018748e+00 3.180122982522899655e-02
1.429407410473044759e-01 1.360941523376057205e+02 1.477835809963445213e+00 3.252332114817831077e-02
1.442152266610436107e-01 1.373209484430949203e+02 1.518181741098019621e+00 3.325105220938339573e-02
1.454897122747827454e-01 1.385481051057399213e+02 1.559436020476309359e+00 3.398440482087178305e-02
1.467641978885219078e-01 1.397756271573836671e+02 1.601606231770190014e+00 3.472336320431632789e-02
1.480386835022610426e-01 1.410035194117981803e+02 1.644699956948068920e+00 3.546791399222276597e-02
1.493131691160001773e-01 1.422317866651494853e+02 1.688724779340104343e+00 3.621804622876458046e-02
1.505876547297393120e-01 1.434604336964732738e+02 1.733688286709224258e+00 3.697375137027119479e-02
1.518621403434784467e-01 1.446894652681601485e+02 1.779598074327787494e+00 3.773502328537633316e-02
1.531366259572175814e-01 1.459188861264510138e+02 1.826461748059715173e+00 3.850185825483200264e-02
1.544111115709567161e-01 1.471487010019409070e+02 1.874286927447930129e+00 3.927425497099441831e-02
1.556855971846958786e-01 1.483789146100921812e+02 1.923081248806948862e+00 4.005221453698736694e-02
1.569600827984349856e-01 1.496095316517557876e+02 1.972852368320465954e+00 4.083574046554837300e-02
1.582345684121741480e-01 1.508405568137017099e+02 2.023607965143804588e+00 4.162483867756329448e-02
1.595090540259132827e-01 1.520719947691564187e+02 2.075355744511044875e+00 4.241951750029383794e-02
1.607835396396524175e-01 1.533038501783477159e+02 2.128103440846742522e+00 4.321978766530346766e-02
1.620580252533915522e-01 1.545361276890585032e+02 2.181858820882057071e+00 4.402566230608585124e-02
1.633325108671306869e-01 1.557688319371861212e+02 2.236629686775179149e+00 4.483715695540096968e-02
1.646069964808698494e-01 1.570019675473092207e+02 2.292423879235920392e+00 4.565428954232249315e-02
1.658814820946089563e-01 1.582355391332611703e+02 2.349249280654331695e+00 4.647708038900131428e-02
1.671559677083481188e-01 1.594695512987106838e+02 2.407113818233252989e+00 4.730555220714853515e-02
1.684304533220872535e-01 1.607040086377466537e+02 2.466025467124623560e+00 4.813973009424249438e-02
1.697049389358263882e-01 1.619389157354711983e+02 2.525992253569496526e+00 4.897964152946282512e-02
1.709794245495655229e-01 1.631742771685974844e+02 2.587022258041591360e+00 4.982531636935525615e-02
1.722539101633046577e-01 1.644100975060530061e+02 2.649123618394302326e+00 5.067678684323086852e-02
1.735283957770437924e-01 1.656463813095887190e+02 2.712304533011039798e+00 5.153408754830245131e-02
1.748028813907829271e-01 1.668831331343932050e+02 2.776573263958803661e+00 5.239725544456129425e-02
1.760773670045220896e-01 1.681203575297123223e+02 2.841938140144882663e+00 5.326632984939749793e-02
1.773518526182611965e-01 1.693580590394724652e+02 2.908407560476567788e+00 5.414135243196585567e-02
1.786263382320003590e-01 1.705962422029111281e+02 2.975989997023812617e+00 5.502236720730119962e-02
1.799008238457394937e-01 1.718349115552092030e+02 3.044693998184682115e+00 5.590942053018391200e-02
1.811753094594786284e-01 1.730740716281298717e+02 3.114528191853568995e+00 5.680256108875978566e-02
1.824497950732177631e-01 1.743137269506606231e+02 3.185501288592021751e+00 5.770183989791508733e-02
2.603589829288663893e-01 2.520891559893082103e+02 1.488291655496952615e+01 2.380994654494885954e-01
3.382681707845149877e-01 3.353302696759211585e+02 4.200276433706993373e+01 4.052444781600088586e-01
4.161773586401636416e-01 4.262328426808478525e+02 8.004874728856709964e+01 4.312611046715917884e-01
4.940865464958122955e-01 5.248009967445511847e+02 1.238718304779051209e+02 4.572777311831747182e-01
5.719957343514608938e-01 6.306941187709692258e+02 1.722255806117514680e+02 4.566003974541467669e-01
6.499049222071094922e-01 7.433680535771018185e+02 2.229052913328225145e+02 4.439471886920487442e-01
7.278141100627582016e-01 8.622082082393085329e+02 2.748657952425139115e+02 4.312939799299507215e-01
8.057232979184068000e-01 9.866689442994319279e+02 3.277174561356338245e+02 4.186407711678526988e-01
8.836324857740553984e-01 1.116275249080989397e+03 3.811209714033439582e+02 4.059875624057546761e-01
9.615416736297039968e-01 1.250607976432893793e+03 4.347777194283365816e+02 3.933343536436566534e-01
1.039450861485352595e+00 1.389293223429699538e+03 4.884227148694664038e+02 3.806811448815586862e-01
1.117360049341001194e+00 1.531994445229511257e+03 5.418193012628352108e+02 3.680279361194606635e-01
1.195269237196650014e+00 1.678406450426040010e+03 5.947550458714472370e+02 3.553747273573626408e-01
1.273178425052298612e+00 1.828373675308433121e+03 6.533262308465232309e+02 4.246448611392127370e-01
1.351087612907947211e+00 1.982287574756097229e+03 7.246848044175874293e+02 5.011678510090353811e-01
1.428996800763595809e+00 2.140703116891988884e+03 8.102713809974267178e+02 5.776908408788581362e-01
1.506905988619244408e+00 2.304177064473174596e+03 9.111198195652805225e+02 6.542138307486807802e-01
1.584815176474893006e+00 2.473265073630807819e+03 1.028391356472269081e+03 7.307368206185034243e-01
1.662724364330541604e+00 2.648528230300148607e+03 1.163379301685750761e+03 8.072598104883261794e-01
1.740633552186190203e+00 2.830468877697292555e+03 1.302329593031194918e+03 7.228565622297203896e-01
1.818542740041839023e+00 3.018373173301289171e+03 1.429638715231627202e+03 6.344677566061687202e-01
1.896451927897487622e+00 3.211438068832638237e+03 1.543425473042794465e+03 5.460789509826172727e-01
1.974361115753136220e+00 3.408866910375514635e+03 1.642374613404000229e+03 4.576901453590657698e-01
2.052270303608784818e+00 3.609878573924661396e+03 1.725388093314938715e+03 3.693013397355143224e-01
