# density  energy_density  pressure   sound_speed_squared  [All in nuclear units]
2.720000000000000022e-14 2.529924618736292620e-11 1.061056609100270887e-19 3.766610435412189122e-08
1.269999999999999890e-13 1.181251617980081254e-10 4.870113551826584858e-18 6.497781477172163475e-08
6.929999999999999754e-13 6.445728594625782745e-10 1.018299070687946017e-16 3.033770597342807186e-07
6.295000000000000137e-12 5.855111460395753757e-09 5.487150723824490656e-15 1.763710043904196507e-06
1.581000000000000150e-11 1.470523320212576141e-08 2.904239460150760759e-14 3.559434472327477622e-06
3.971999999999999958e-11 3.694456170323160790e-08 1.439340266754906811e-13 6.772854871245677111e-06
9.975999999999999982e-11 9.278976412613005154e-08 6.812143616221268841e-13 1.246890511177539320e-05
2.505999999999999928e-10 2.330928829758143313e-07 3.107749196951638608e-12 2.212095130576091967e-05
6.294000000000000186e-10 5.854398883216247602e-07 1.363250409771533549e-11 3.761981047239428883e-05
1.581000000000000021e-09 1.470619631082054101e-06 5.726014178088476303e-11 6.095350986710739404e-05
3.971999999999999932e-09 3.694861084648016046e-06 2.210019573374265380e-10 8.628023653304385055e-05
5.000000000000000105e-09 4.651201787816927976e-06 3.071485916280120014e-10 9.387863480799757518e-05
9.975999999999999465e-09 9.280587964640925786e-06 8.385361004129998845e-10 1.356922228656245837e-04
1.989999999999999952e-08 1.851419242998081003e-05 2.287763168863418088e-09 1.782101978513718314e-04
3.972999999999999908e-08 3.696699295748789187e-05 6.061583099087538954e-09 2.308134738384234820e-04
7.925999999999999637e-08 7.375765469301719828e-05 1.575347858094044765e-08 2.960532096713864875e-04
1.580999999999999930e-07 1.471491184379128891e-04 3.910429618672550719e-08 3.402859755131850544e-04
1.991000000000000027e-07 1.853209783927820692e-04 5.252045687899177454e-08 3.626488188833278743e-04
3.155999999999999938e-07 2.938002528823880299e-04 9.730770378831954314e-08 4.630767356912104081e-04
5.000999999999999849e-07 4.656344063839075714e-04 1.837494945860225819e-07 5.430301232045120323e-04
6.295999999999999732e-07 5.862651417037388971e-04 2.503103884558263872e-07 5.605192962670089638e-04
9.666999999999999941e-07 9.003386739730535665e-04 4.324450868778576936e-07 5.993081670211623108e-04
1.531999999999999901e-06 1.427170885631398036e-03 7.780217275717420968e-07 7.125938556504039095e-04
2.506999999999999883e-06 2.336134972129507662e-03 1.471005394641589826e-06 8.121876172121876309e-04
3.974000000000000407e-06 3.704315759716615697e-03 2.695705763844323844e-06 9.780674166779417152e-04
4.830000000000000343e-06 4.502887798316278223e-03 3.503988717694660908e-06 1.046253037768318664e-03
6.080999999999999885e-06 5.670217999231269741e-03 4.731126407333307547e-06 1.056224360839501646e-03
7.930000000000000308e-06 7.396012414119570652e-03 6.599662989063778187e-06 1.109203753630785610e-03
9.982000000000000313e-06 9.311815711689977113e-03 8.879881089227186733e-06 1.271216815433141075e-03
1.256999999999999993e-05 1.172874412604260098e-02 1.207676739913533738e-05 1.374195438212825332e-03
1.521999999999999997e-05 1.420427250933824909e-02 1.547541302213394990e-05 1.371610497379100249e-03
1.991000000000000080e-05 1.858690797761085312e-02 2.160710455847765458e-05 1.426578142835871997e-03
2.506999999999999883e-05 2.341050104039446925e-02 2.908031724375689851e-05 1.672007475975408053e-03
2.790999999999999875e-05 2.606604784714952258e-02 3.357009132255487721e-05 1.709425557744154774e-03
3.806999999999999973e-05 3.556967988784798945e-02 4.986781576435106434e-05 1.720407281314112165e-03
5.063000000000000145e-05 4.732434580343149871e-02 7.073400252905581275e-05 1.829889149838781265e-03
6.592000000000000583e-05 6.164112392498975052e-02 9.765037643900635188e-05 1.930242980462695823e-03
8.433000000000000066e-05 7.888776783401378612e-02 1.317235490470395893e-04 2.021055815200022837e-03
1.062000000000000064e-04 9.938561165478684845e-02 1.740088341640037047e-04 2.104789529260958983e-03
1.321000000000000126e-04 1.236720406455826121e-01 2.260189757651373944e-04 2.178291718403657477e-03
1.623999999999999901e-04 1.520974545104751274e-01 2.888169908545388338e-04 2.240170365918073281e-03
1.689999999999999879e-04 1.582907717069566844e-01 3.027354772999506964e-04 2.254509350360745651e-03
1.758999999999999930e-04 1.647661861691531171e-01 3.173785841705756782e-04 2.268169273277113179e-03
1.830000000000000029e-04 1.714298948183871907e-01 3.325196584577469103e-04 2.276170334580628063e-03
1.901999999999999882e-04 1.781880600978280049e-01 3.479577791899843742e-04 2.292561569242367037e-03
1.977000000000000079e-04 1.852284385240466902e-01 3.641242634600037713e-04 2.299943765467868384e-03
2.054000000000000053e-04 1.924572004474696396e-01 3.808304060475003897e-04 2.322187632288155723e-03
2.079000000000000119e-04 1.948043378760714872e-01 3.864137987380476553e-04 2.435429768083530178e-03
2.081999999999999921e-04 1.950859988578999005e-01 3.870314100985603909e-04 1.950065624557156818e-03
2.090999999999999868e-04 1.959309855029948977e-01 3.881261957135444685e-04 6.411875526909013856e-04
2.159999999999999919e-04 2.024093317906446865e-01 3.940874488768042125e-04 1.199166870571831411e-03
2.231000000000000019e-04 2.090756740932291913e-01 4.013938420547467825e-04 9.928616047829054436e-04
2.311000000000000066e-04 2.165873044433437034e-01 4.085241694843774404e-04 9.056166966301716637e-04
2.401000000000000085e-04 2.250381721984245909e-01 4.159700687886608468e-04 8.565463878902855599e-04
2.500000000000000052e-04 2.343344406330727658e-01 4.237602369176299592e-04 8.194318812157330018e-04
2.642999999999999733e-04 2.477629128650125634e-01 4.345596643180389446e-04 7.890063723638815647e-04
3.052999999999999941e-04 2.862671839140227270e-01 4.644058706720978241e-04 7.612775562167708662e-04
3.533000000000000224e-04 3.313503829113090826e-01 4.987577676308450197e-04 7.626578558207241024e-04
4.075999999999999871e-04 3.823564017794535141e-01 5.381334366106255759e-04 7.813048116943254948e-04
4.679999999999999915e-04 4.390986251953180042e-01 5.832692638200615834e-04 8.096035963157804938e-04
5.341000000000000261e-04 5.012024644415256081e-01 6.346556894078133086e-04 8.452514814113673558e-04
6.059000000000000366e-04 5.686690698184251325e-01 6.930641302632923034e-04 8.862253587289389486e-04
7.661000000000000275e-04 7.192254882508629654e-01 8.328184776562496576e-04 9.702780530519144065e-04
1.262000000000000101e-03 1.185459127778160093e+00 1.338484980802662205e-03 1.198863597978450275e-03
1.894999999999999983e-03 1.780909071169781921e+00 2.123481960401060308e-03 1.437771491635827115e-03
2.673000000000000029e-03 2.513147344746868850e+00 3.261860252001994032e-03 1.671524566936786766e-03
3.605999999999999830e-03 3.391736073717691369e+00 4.828136641022434151e-03 1.893900408978071038e-03
4.709999999999999777e-03 4.431905410739045870e+00 6.903512974832482635e-03 2.096551352830673849e-03
7.496000000000000059e-03 7.058993649504918366e+00 1.289742191321638018e-02 2.466596387205546859e-03
1.119999999999999989e-02 1.055540362104863661e+01 2.212077014004794340e-02 2.809304433764861584e-03
1.600000000000000033e-02 1.509117352747679952e+01 3.559566804390756900e-02 3.132325055719984222e-03
2.206999999999999934e-02 2.083310616724802244e+01 5.457322122755020599e-02 3.477840948757840792e-03
2.947999999999999926e-02 2.785007348564149154e+01 8.049103664263126956e-02 3.909302116317729670e-03
4.268000000000000266e-02 4.036707211535221518e+01 1.353887601042819133e-01 4.862066536253286525e-03
6.219999999999999835e-02 5.891246509830522626e+01 2.419691225623893105e-01 6.630786177272363080e-03
7.316999999999999893e-02 6.935151695866235855e+01 3.161896974764099033e-01 7.588671314871411888e-03
7.595999999999999974e-02 7.200836722020332559e+01 3.371250777904805096e-01 8.170805199905810390e-03
7.685877551020407761e-02 7.286441681116252767e+01 3.442080193106176189e-01 8.377156359832724566e-03
7.775755102040816935e-02 7.372055027448963926e+01 3.514701724738391042e-01 8.587837261943278774e-03
7.865632653061224722e-02 7.457676873335269363e+01 3.589152064591346614e-01 8.802654582083322549e-03
7.955510204081632508e-02 7.543307332624830508e+01 3.665466268337644329e-01 9.021414996098715833e-03
8.045387755102040295e-02 7.628946520463313163e+01 3.743677755062116974e-01 9.243925179835315101e-03
8.135265306122449469e-02 7.714594553066073956e+01 3.823818306758555718e-01 9.469991809138978561e-03
8.225142857142857256e-02 7.800251547501788707e+01 3.905918067792675807e-01 9.699421559855552280e-03
8.315020408163265042e-02 7.885917621485512541e+01 3.990005544330572640e-01 9.932021107830901405e-03
8.404897959183672829e-02 7.971592893180587680e+01 4.076107603732037621e-01 1.016759712891087720e-02
8.494775510204082003e-02 8.057277481008949849e+01 4.164249473908300248e-01 1.040595629894133962e-02
8.584653061224489790e-02 8.142971503469433969e+01 4.254454742643863918e-01 1.064690529376813820e-02
8.674530612244897576e-02 8.228675078963613032e+01 4.346745356882286138e-01 1.089025078923713460e-02
8.764408163265305363e-02 8.314388325628702603e+01 4.441141621975810416e-01 1.113579946119418358e-02
8.854285714285714537e-02 8.400111361177367542e+01 4.537662200898938125e-01 1.138335798548514508e-02
8.944163265306122323e-02 8.485844302743844025e+01 4.636324113426087412e-01 1.163273303795586341e-02
9.034040816326530110e-02 8.571587266736227662e+01 4.737142735273631722e-01 1.188373129445220201e-02
9.123918367346939284e-02 8.657340368694505628e+01 4.840131797206657649e-01 1.213615943082001734e-02
9.213795918367347071e-02 8.743103723154126783e+01 4.945303384110902312e-01 1.238982412290516068e-02
9.303673469387754857e-02 8.828877443514817003e+01 5.052667934030425911e-01 1.264453204655349369e-02
9.393551020408162644e-02 8.914661641914315737e+01 5.162234237171605677e-01 1.290008987761086766e-02
9.483428571428570431e-02 9.000456429106871781e+01 5.274009434874158408e-01 1.315630429192313905e-02
9.573306122448979605e-02 9.086261914346303570e+01 5.387999018549951558e-01 1.341298196533616954e-02
9.663183673469387391e-02 9.172078205273241736e+01 5.504206828590408884e-01 1.366992957369580521e-02
9.753061224489795178e-02 9.257905407806556752e+01 5.622635053243436598e-01 1.392695379284790771e-02
9.842938775510204352e-02 9.343743626038641992e+01 5.743284227460768721e-01 1.418386129863834048e-02
9.932816326530612139e-02 9.429592962134417178e+01 5.866153231716750849e-01 1.444045876691294264e-02
1.002269387755101993e-01 9.515453516233880293e+01 5.991239290799643680e-01 1.469655287351757933e-02
1.011257142857142910e-01 9.601325386358082881e+01 6.118537972576492123e-01 1.495195029429811050e-02
1.020244897959183689e-01 9.687208668318265836e+01 6.248043186732750165e-01 1.520645770510038221e-02
1.029232653061224467e-01 9.773103455628123015e+01 6.379747183487852746e-01 1.545988178177025267e-02
1.038220408163265246e-01 9.859009839419056220e+01 6.513640552287940366e-01 1.571202920015358356e-02
1.047208163265306025e-01 9.944927908358165780e+01 6.649712220477043134e-01 1.596270663609623136e-02
1.056195918367346942e-01 1.003085774856903072e+02 6.787949451948023238e-01 1.621172076544404386e-02
1.065183673469387721e-01 1.011679944355498009e+02 6.928337845774611425e-01 1.645887826404288448e-02
1.074171428571428499e-01 1.020275307412492509e+02 7.070861334825963018e-01 1.670398580773860275e-02
1.083159183673469417e-01 1.028871871832150902e+02 7.215502184365094607e-01 1.694685007237705862e-02
1.092146938775510195e-01 1.037469645135149534e+02 7.362240990632680226e-01 1.718727773380410162e-02
1.101134693877550974e-01 1.046068634551842109e+02 7.511056679417693616e-01 1.742507546786559863e-02
1.110122448979591891e-01 1.054668847015724396e+02 7.661926504616369815e-01 1.766004995040740266e-02
1.119110204081632531e-01 1.063270289157102013e+02 7.814826046781027102e-01 1.789200785727535631e-02
1.128097959183673449e-01 1.071872967296954613e+02 7.969729211660352419e-01 1.812075586431533339e-02
1.137085714285714227e-01 1.080476887440972718e+02 8.126608228732634664e-01 1.834610064737318344e-02
1.146073469387755006e-01 1.089082055273784277e+02 8.285433649733672246e-01 1.856784888229475600e-02
1.155061224489795924e-01 1.097688476153343231e+02 8.446174347180883668e-01 1.878580724492591447e-02
1.164048979591836702e-01 1.106296155105478789e+02 8.608797512895322024e-01 1.899978241111250840e-02
1.173036734693877481e-01 1.114905096818612691e+02 8.773268656523266484e-01 1.920958105670040120e-02
1.182024489795918398e-01 1.123515305638615871e+02 8.939551604059056134e-01 1.941500985753544586e-02
1.191012244897959177e-01 1.132126785563813058e+02 9.107608496370886986e-01 1.961587548946349888e-02
1.199999999999999956e-01 1.140739540240132470e+02 9.277399787731329672e-01 1.981198462833040977e-02
1.222564417738661452e-01 1.162368143673165690e+02 9.711095202738002641e-01 2.029182319460296965e-02
1.245128835477323087e-01 1.184004850021667892e+02 1.015547035352011740e+00 2.078414992976430897e-02
1.267693253215984583e-01 1.205649708518395471e+02 1.061080639320220342e+00 2.128914363879810465e-02
1.290257670954646219e-01 1.227302771685897369e+02 1.107738872153439136e+00 2.180697599524311289e-02
1.312822088693307854e-01 1.248964095236956098e+02 1.155550684652146609e+00 2.233781171704459639e-02
1.335386506431969211e-01 1.270633737979531190e+02 1.204545424985692392e+00 2.288180873647897157e-02
1.357950924170630846e-01 1.292311761725887607e+02 1.254752825604412036e+00 2.343911836500032000e-02
1.380515341909292482e-01 1.313998231205614218e+02 1.306202990510330286e+00 2.400988545376796929e-02
1.403079759647953839e-01 1.335693213982284249e+02 1.358926382877851280e+00 2.459424855053722603e-02
1.425644177386615474e-01 1.357396780373509841e+02 1.412953813017174154e+00 2.519234005352678774e-02
1.448208595125277109e-01 1.379109003374184113e+02 1.468316426674392439e+00 2.580428636281661969e-02
1.470773012863938745e-01 1.400829958582701806e+02 1.525045693663363178e+00 2.643020802977587638e-02
1.493337430602600102e-01 1.422559724130005065e+02 1.583173396825415580e+00 2.707021990497499725e-02
1.515901848341261737e-01 1.444298380611255084e+02 1.642731621313902490e+00 2.772443128499323464e-02
1.538466266079923372e-01 1.466046011020015953e+02 1.703752744201419533e+00 2.839294605849644604e-02
1.561030683818585008e-01 1.487802700684793820e+02 1.766269424408311695e+00 2.907586285192706801e-02
1.583595101557246365e-01 1.509568537207815666e+02 1.830314592951764130e+00 2.977327517511848057e-02
1.606159519295908000e-01 1.531343610405924380e+02 1.895921443515451221e+00 3.048527156712022707e-02
1.628723937034569635e-01 1.553128012253501709e+02 1.963123423340299212e+00 3.121193574249657779e-02
1.651288354773230993e-01 1.574921836827309392e+02 2.031954224437503509e+00 3.195334673833975098e-02
1.673852772511892628e-01 1.596725180253169754e+02 2.102447775125445339e+00 3.270957906222063394e-02
1.696417190250554263e-01 1.618538140654401900e+02 2.174638231892633389e+00 3.348070284128159407e-02
1.718981607989215621e-01 1.640360818101935365e+02 2.248559971589285222e+00 3.426678397266163384e-02
1.741546025727877256e-01 1.662193314566053175e+02 2.324247583950556528e+00 3.506788427542849307e-02
1.764110443466538891e-01 1.684035733869674232e+02 2.401735864454844105e+00 3.588406164418097427e-02
1.786674861205200526e-01 1.705888181643145174e+02 2.481059807520979987e+00 3.671537020447117328e-02
1.809239278943862161e-01 1.727750765280472365e+02 2.562254600048480047e+00 3.756186047018713475e-02
1.831803696682523519e-01 1.749623593896957630e+02 2.645355615305357677e+00 3.842357950302478092e-02
1.854368114421185154e-01 1.771506778288186581e+02 2.730398407168349362e+00 3.930057107416978779e-02
1.876932532159846789e-01 1.793400430890332586e+02 2.817418704720683564e+00 4.019287582830118749e-02
1.899496949898508147e-01 1.815304665741755628e+02 2.906452407212858358e+00 4.110053145001928837e-02
1.922061367637169782e-01 1.837219598445823863e+02 2.997535579392145433e+00 4.202357283279475192e-02
1.944625785375831417e-01 1.859145346134982049e+02 3.090704447206807703e+00 4.296203225052637464e-02
1.967190203114492775e-01 1.881082027435991222e+02 3.185995393891313032e+00 4.391593953178964116e-02
1.989754620853154410e-01 1.903029762436352712e+02 3.283444956439034890e+00 4.488532223685107875e-02
2.012319038591816045e-01 1.924988672651855381e+02 3.383089822469176333e+00 4.587020583751630354e-02
2.034883456330477403e-01 1.946958880995276786e+02 3.484966827494909936e+00 4.687061389987484672e-02
2.057447874069139315e-01 1.968940511746170330e+02 3.589112952599918138e+00 4.788656826999771604e-02
2.080012291807800673e-01 1.990933690521757455e+02 3.695565322530707686e+00 4.891808926263790241e-02
2.102576709546462308e-01 2.012938544248892754e+02 3.804361204212352909e+00 4.996519585297851812e-02
2.125141127285123943e-01 2.034955201137105121e+02 3.915538005695392343e+00 5.102790587146707052e-02
2.147705545023785301e-01 2.056983790652681421e+02 4.029133275541901149e+00 5.210623620176869225e-02
2.170269962762446936e-01 2.079024443493811134e+02 4.145184702658862186e+00 5.320020298186555613e-02
2.192834380501108571e-01 2.101077291566764416e+02 4.263730116587127306e+00 5.430982180832277795e-02
2.215398798239769929e-01 2.123142467963109539e+02 4.384807488254457652e+00 5.543510794373696787e-02
2.237963215978431564e-01 2.145220106937946127e+02 4.508454931201225868e+00 5.657607652737543097e-02
2.260527633717093199e-01 2.167310343889184594e+02 4.634710703287499456e+00 5.773274278900952100e-02
2.283092051455754556e-01 2.189413315337824599e+02 4.763613208890394191e+00 5.890512226593810213e-02
2.305656469194416192e-01 2.211529158909282557e+02 4.895201001600645085e+00 6.009323102319161225e-02
3.074928786149632165e-01 2.990953988132491190e+02 2.644272934227623040e+01 4.735021498092840120e-01
3.844201103104848416e-01 3.851621637166177834e+02 6.638170210476657473e+01 4.572303556620876952e-01
4.613473420060064112e-01 4.795036544492849089e+02 1.086624564691904595e+02 4.409585615148914339e-01
5.382745737015279808e-01 5.810603154585724042e+02 1.525484354850247541e+02 4.246867673676951171e-01
6.152018053970496059e-01 6.889828151550460689e+02 1.974460932319832409e+02 4.084149732204988004e-01
6.921290370925712310e-01 8.025676155515955088e+02 2.428635598045002553e+02 3.921431790733024281e-01
7.690562687880927450e-01 9.212178501405537645e+02 2.883852995494486890e+02 3.758713849261061668e-01
8.459835004836143701e-01 1.044417907527292073e+03 3.336554079519135030e+02 3.595995907789098500e-01
9.229107321791359952e-01 1.171716044795387006e+03 3.783659875075726973e+02 3.433277966317135332e-01
9.998379638746576203e-01 1.302711998885294634e+03 4.222487076907180494e+02 3.270560024845171609e-01
1.076765195570179134e+00 1.437047862481215361e+03 4.650684645072013836e+02 3.107842083373208997e-01
1.153692427265700760e+00 1.574401177637800401e+03 5.066184823189766462e+02 2.945124141901246384e-01
1.230619658961222385e+00 1.714479586142754670e+03 5.467164405439465327e+02 2.782406200429282661e-01
1.307546890656744010e+00 1.857016603303663260e+03 5.852013497198365712e+02 2.619688258957320048e-01
1.384474122352265635e+00 2.001768221940750664e+03 6.219309890242989241e+02 2.456970317485356603e-01
1.461401354047787260e+00 2.148510142669913421e+03 6.567797734440740669e+02 2.294252376013393435e-01
1.538328585743308885e+00 2.297035485252821218e+03 6.896369558582223362e+02 2.131534434541429990e-01
1.615255817438830510e+00 2.447518460509631495e+03 7.432498161569918693e+02 4.961137547703987072e-01
1.692183049134352135e+00 2.601463912359268761e+03 8.437784752951077962e+02 8.023592310702836183e-01
1.769110280829873760e+00 2.760973833419484436e+03 9.855667042603695336e+02 9.692870000283060339e-01
1.846037512525395163e+00 2.927315533184216292e+03 1.143634935627110281e+03 9.327071948474656704e-01
1.922964744220916788e+00 3.100247385363922604e+03 1.301650549882265750e+03 8.961273896666253069e-01
1.999891975916438414e+00 3.279488698230523369e+03 1.458885291866930629e+03 8.595475844857848324e-01
2.076819207611960039e+00 3.464752852720328519e+03 1.614636624220322119e+03 8.229677793049444690e-01
