# density  energy_density  pressure   sound_speed_squared  [All in nuclear units]
2.720000000000000022e-14 2.529924618736292620e-11 1.061056609100270887e-19 3.766610435412189122e-08
1.269999999999999890e-13 1.181251617980081254e-10 4.870113551826584858e-18 6.497781477172163475e-08
6.929999999999999754e-13 6.445728594625782745e-10 1.018299070687946017e-16 3.033770597342807186e-07
6.295000000000000137e-12 5.855111460395753757e-09 5.487150723824490656e-15 1.763710043904196507e-06
1.581000000000000150e-11 1.470523320212576141e-08 2.904239460150760759e-14 3.559434472327477622e-06
3.971999999999999958e-11 3.694456170323160790e-08 1.439340266754906811e-13 6.772854871245677111e-06
9.975999999999999982e-11 9.278976412613005154e-08 6.812143616221268841e-13 1.246890511177539320e-05
2.505999999999999928e-10 2.330928829758143313e-07 3.107749196951638608e-12 2.212095130576091967e-05
6.294000000000000186e-10 5.854398883216247602e-07 1.363250409771533549e-11 3.761981047239428883e-05
1.581000000000000021e-09 1.470619631082054101e-06 5.726014178088476303e-11 6.095350986710739404e-05
3.971999999999999932e-09 3.694861084648016046e-06 2.210019573374265380e-10 8.628023653304385055e-05
5.000000000000000105e-09 4.651201787816927976e-06 3.071485916280120014e-10 9.387863480799757518e-05
9.975999999999999465e-09 9.280587964640925786e-06 8.385361004129998845e-10 1.356922228656245837e-04
1.989999999999999952e-08 1.851419242998081003e-05 2.287763168863418088e-09 1.782101978513718314e-04
3.972999999999999908e-08 3.696699295748789187e-05 6.061583099087538954e-09 2.308134738384234820e-04
7.925999999999999637e-08 7.375765469301719828e-05 1.575347858094044765e-08 2.960532096713864875e-04
1.580999999999999930e-07 1.471491184379128891e-04 3.910429618672550719e-08 3.402859755131850544e-04
1.991000000000000027e-07 1.853209783927820692e-04 5.252045687899177454e-08 3.626488188833278743e-04
3.155999999999999938e-07 2.938002528823880299e-04 9.730770378831954314e-08 4.630767356912104081e-04
5.000999999999999849e-07 4.656344063839075714e-04 1.837494945860225819e-07 5.430301232045120323e-04
6.295999999999999732e-07 5.862651417037388971e-04 2.503103884558263872e-07 5.605192962670089638e-04
9.666999999999999941e-07 9.003386739730535665e-04 4.324450868778576936e-07 5.993081670211623108e-04
1.531999999999999901e-06 1.427170885631398036e-03 7.780217275717420968e-07 7.125938556504039095e-04
2.506999999999999883e-06 2.336134972129507662e-03 1.471005394641589826e-06 8.121876172121876309e-04
3.974000000000000407e-06 3.704315759716615697e-03 2.695705763844323844e-06 9.780674166779417152e-04
4.830000000000000343e-06 4.502887798316278223e-03 3.503988717694660908e-06 1.046253037768318664e-03
6.080999999999999885e-06 5.670217999231269741e-03 4.731126407333307547e-06 1.056224360839501646e-03
7.930000000000000308e-06 7.396012414119570652e-03 6.599662989063778187e-06 1.109203753630785610e-03
9.982000000000000313e-06 9.311815711689977113e-03 8.879881089227186733e-06 1.271216815433141075e-03
1.256999999999999993e-05 1.172874412604260098e-02 1.207676739913533738e-05 1.374195438212825332e-03
1.521999999999999997e-05 1.420427250933824909e-02 1.547541302213394990e-05 1.371610497379100249e-03
1.991000000000000080e-05 1.858690797761085312e-02 2.160710455847765458e-05 1.426578142835871997e-03
2.506999999999999883e-05 2.341050104039446925e-02 2.908031724375689851e-05 1.672007475975408053e-03
2.790999999999999875e-05 2.606604784714952258e-02 3.357009132255487721e-05 1.709425557744154774e-03
3.806999999999999973e-05 3.556967988784798945e-02 4.986781576435106434e-05 1.720407281314112165e-03
5.063000000000000145e-05 4.732434580343149871e-02 7.073400252905581275e-05 1.829889149838781265e-03
6.592000000000000583e-05 6.164112392498975052e-02 9.765037643900635188e-05 1.930242980462695823e-03
8.433000000000000066e-05 7.888776783401378612e-02 1.317235490470395893e-04 2.021055815200022837e-03
1.062000000000000064e-04 9.938561165478684845e-02 1.740088341640037047e-04 2.104789529260958983e-03
1.321000000000000126e-04 1.236720406455826121e-01 2.260189757651373944e-04 2.178291718403657477e-03
1.623999999999999901e-04 1.520974545104751274e-01 2.888169908545388338e-04 2.240170365918073281e-03
1.689999999999999879e-04 1.582907717069566844e-01 3.027354772999506964e-04 2.254509350360745651e-03
1.758999999999999930e-04 1.647661861691531171e-01 3.173785841705756782e-04 2.268169273277113179e-03
1.830000000000000029e-04 1.714298948183871907e-01 3.325196584577469103e-04 2.276170334580628063e-03
1.901999999999999882e-04 1.781880600978280049e-01 3.479577791899843742e-04 2.292561569242367037e-03
1.977000000000000079e-04 1.852284385240466902e-01 3.641242634600037713e-04 2.299943765467868384e-03
2.054000000000000053e-04 1.924572004474696396e-01 3.808304060475003897e-04 2.322187632288155723e-03
2.079000000000000119e-04 1.948043378760714872e-01 3.864137987380476553e-04 2.435429768083530178e-03
2.081999999999999921e-04 1.950859988578999005e-01 3.870314100985603909e-04 1.950065624557156818e-03
2.090999999999999868e-04 1.959309855029948977e-01 3.881261957135444685e-04 6.411875526909013856e-04
2.159999999999999919e-04 2.024093317906446865e-01 3.940874488768042125e-04 1.199166870571831411e-03
2.231000000000000019e-04 2.090756740932291913e-01 4.013938420547467825e-04 9.928616047829054436e-04
2.311000000000000066e-04 2.165873044433437034e-01 4.085241694843774404e-04 9.056166966301716637e-04
2.401000000000000085e-04 2.250381721984245909e-01 4.159700687886608468e-04 8.565463878902855599e-04
2.500000000000000052e-04 2.343344406330727658e-01 4.237602369176299592e-04 8.194318812157330018e-04
2.642999999999999733e-04 2.477629128650125634e-01 4.345596643180389446e-04 7.890063723638815647e-04
3.052999999999999941e-04 2.862671839140227270e-01 4.644058706720978241e-04 7.612775562167708662e-04
3.533000000000000224e-04 3.313503829113090826e-01 4.987577676308450197e-04 7.626578558207241024e-04
4.075999999999999871e-04 3.823564017794535141e-01 5.381334366106255759e-04 7.813048116943254948e-04
4.679999999999999915e-04 4.390986251953180042e-01 5.832692638200615834e-04 8.096035963157804938e-04
5.341000000000000261e-04 5.012024644415256081e-01 6.346556894078133086e-04 8.452514814113673558e-04
6.059000000000000366e-04 5.686690698184251325e-01 6.930641302632923034e-04 8.862253587289389486e-04
7.661000000000000275e-04 7.192254882508629654e-01 8.328184776562496576e-04 9.702780530519144065e-04
1.262000000000000101e-03 1.185459127778160093e+00 1.338484980802662205e-03 1.198863597978450275e-03
1.894999999999999983e-03 1.780909071169781921e+00 2.123481960401060308e-03 1.437771491635827115e-03
2.673000000000000029e-03 2.513147344746868850e+00 3.261860252001994032e-03 1.671524566936786766e-03
3.605999999999999830e-03 3.391736073717691369e+00 4.828136641022434151e-03 1.893900408978071038e-03
4.709999999999999777e-03 4.431905410739045870e+00 6.903512974832482635e-03 2.096551352830673849e-03
7.496000000000000059e-03 7.058993649504918366e+00 1.289742191321638018e-02 2.466596387205546859e-03
1.119999999999999989e-02 1.055540362104863661e+01 2.212077014004794340e-02 2.809304433764861584e-03
1.600000000000000033e-02 1.509117352747679952e+01 3.559566804390756900e-02 3.132325055719984222e-03
2.206999999999999934e-02 2.083310616724802244e+01 5.457322122755020599e-02 3.477840948757840792e-03
2.947999999999999926e-02 2.785007348564149154e+01 8.049103664263126956e-02 3.909302116317729670e-03
4.268000000000000266e-02 4.036707211535221518e+01 1.353887601042819133e-01 4.862066536253286525e-03
6.219999999999999835e-02 5.891246509830522626e+01 2.419691225623893105e-01 6.630786177272363080e-03
7.316999999999999893e-02 6.935151695866235855e+01 3.161896974764099033e-01 7.588671314871411888e-03
7.595999999999999974e-02 7.200836722020332559e+01 3.371250777904805096e-01 8.170805199905813859e-03
7.685877551020407761e-02 7.286441686617746427e+01 3.442174343640488909e-01 8.399150719035715709e-03
7.775755102040816935e-02 7.372055063971797040e+01 3.515139726083368332e-01 8.646161327014142625e-03
7.865632653061224722e-02 7.457677001885153345e+01 3.590303794503578727e-01 8.911025490571279281e-03
7.955510204081632508e-02 7.543307662317035067e+01 3.667816540017803661e-01 9.192931676437327698e-03
8.045387755102040295e-02 7.628947220126197237e+01 3.747821074798167729e-01 9.491068351342491632e-03
8.135265306122449469e-02 7.714595861870030546e+01 3.830453631247472956e-01 9.804623982016966166e-03
8.225142857142857256e-02 7.800253784656661082e+01 3.915843561097150372e-01 1.013278703519094465e-02
8.315020408163265042e-02 7.885921195047090748e+01 4.004113334389063916e-01 1.047474597759462563e-02
8.404897959183672829e-02 7.971598308004701039e+01 4.095378538306641003e-01 1.082968927595820766e-02
8.494775510204082003e-02 8.057285345889580697e+01 4.189747875824942902e-01 1.119680539701189970e-02
8.584653061224489790e-02 8.142982537495188922e+01 4.287323164153048483e-01 1.157528280748587948e-02
8.674530612244897576e-02 8.228690117125312042e+01 4.388199332945725839e-01 1.196430997411035597e-02
8.764408163265305363e-02 8.314408323708956061e+01 4.492464422264605406e-01 1.236307536361552772e-02
8.854285714285714537e-02 8.400137399951408668e+01 4.600199580272229527e-01 1.277076744273159849e-02
8.944163265306122323e-02 8.485877591519457042e+01 4.711479060645187289e-01 1.318657467818875120e-02
9.034040816326530110e-02 8.571629146259178356e+01 4.826370219695294561e-01 1.360968553671718963e-02
9.123918367346939284e-02 8.657392313444439935e+01 4.944933513190254426e-01 1.403928848504712099e-02
9.213795918367347071e-02 8.743167343054761886e+01 5.067222492867642369e-01 1.447457198990872995e-02
9.303673469387754857e-02 8.828954485080998893e+01 5.193283802638285485e-01 1.491472451803221855e-02
9.393551020408162644e-02 8.914753988857442835e+01 5.323157174477147757e-01 1.535893453614779053e-02
9.483428571428570431e-02 9.000566102419082881e+01 5.456875424001845776e-01 1.580639051098563230e-02
9.573306122448979605e-02 9.086391071882813719e+01 5.594464445740726655e-01 1.625628090927595804e-02
9.663183673469387391e-02 9.172229140851422358e+01 5.735943208094174128e-01 1.670779419774894720e-02
9.753061224489795178e-02 9.258080549839249329e+01 5.881323747994482432e-01 1.716011884313480701e-02
9.842938775510204352e-02 9.343945535718533790e+01 6.030611165271104745e-01 1.761244331216374470e-02
9.932816326530612139e-02 9.429824331185447761e+01 6.183803616729588448e-01 1.806395607156593974e-02
1.002269387755101993e-01 9.515717164244914272e+01 6.340892309953888306e-01 1.851384558807159589e-02
1.011257142857142910e-01 9.601624257713291399e+01 6.501861496842986643e-01 1.896130032841092383e-02
1.020244897959183689e-01 9.687545828738241482e+01 6.666688466894020726e-01 1.940550875931409958e-02
1.029232653061224467e-01 9.773482088334836249e+01 6.835343540245287786e-01 1.984565934751133381e-02
1.038220408163265246e-01 9.859433240937268295e+01 7.007790060493540585e-01 2.028094055973282683e-02
1.047208163265306025e-01 9.945399483965496756e+01 7.183984387301090013e-01 2.071054086270877198e-02
1.056195918367346942e-01 1.003138100740603704e+02 7.363875888809180426e-01 2.113364872316937648e-02
1.065183673469387721e-01 1.011737799340648820e+02 7.547406933875052681e-01 2.154945260784481981e-02
1.074171428571428499e-01 1.020339061588296232e+02 7.734512884151041323e-01 2.195714098346530224e-02
1.083159183673469417e-01 1.028941904014005644e+02 7.925122086024811718e-01 2.235590231676104142e-02
1.092146938775510195e-01 1.037546342250277576e+02 8.119155862440744498e-01 2.274492507446222028e-02
1.101134693877550974e-01 1.046152390995979715e+02 8.316528504623224016e-01 2.312339772329903564e-02
1.110122448979591891e-01 1.054760063981785549e+02 8.517147263723263695e-01 2.349050873000169820e-02
1.119110204081632531e-01 1.063369373936646980e+02 8.720912342410671592e-01 2.384544656130038048e-02
1.128097959183673449e-01 1.071980332555291824e+02 8.927716886434649002e-01 2.418739968392531053e-02
1.137085714285714227e-01 1.080592950466680122e+02 9.137446976176194502e-01 2.451555656460666435e-02
1.146073469387755006e-01 1.089207237203391969e+02 9.349981618216572921e-01 2.482910567007464570e-02
1.155061224489795924e-01 1.097823201171916025e+02 9.565192736946408480e-01 2.512723546705946526e-02
1.164048979591836702e-01 1.106440849623787983e+02 9.782945166240701873e-01 2.540913442229129557e-02
1.173036734693877481e-01 1.115060188627565338e+02 1.000309664122558839e+00 2.567399100250036120e-02
1.182024489795918398e-01 1.123681223041594563e+02 1.022549779016307614e+00 2.592099367441684163e-02
1.191012244897959177e-01 1.132303956487541683e+02 1.044999212648058728e+00 2.614933090477093366e-02
1.199999999999999956e-01 1.140928391324667643e+02 1.067641604097260277e+00 2.635819116029285147e-02
1.216013790480123397e-01 1.156299064384814557e+02 1.108413316357650169e+00 2.669307273336818387e-02
1.232027580960246838e-01 1.171675141360476715e+02 1.149711261635133042e+00 2.702402981219013609e-02
1.248041371440370279e-01 1.187056620039785884e+02 1.191529694950997698e+00 2.735098137432619841e-02
1.264055161920493719e-01 1.202443497522117042e+02 1.233862741232086169e+00 2.767385044174787076e-02
1.280068952400617022e-01 1.217835770228161607e+02 1.276704401223758278e+00 2.799256396826013682e-02
1.296082742880740601e-01 1.233233433910222629e+02 1.320048557246770393e+00 2.830705272848286005e-02
1.312096533360863904e-01 1.248636483662698993e+02 1.363888978800114948e+00 2.861725120846755899e-02
1.328110323840987483e-01 1.264044913932741139e+02 1.408219328012007665e+00 2.892309749802223287e-02
1.344124114321110786e-01 1.279458718531034833e+02 1.453033164941275102e+00 2.922453318481029946e-02
1.360137904801234365e-01 1.294877890642694069e+02 1.498323952731528630e+00 2.952150325028017955e-02
1.376151695281357668e-01 1.310302422838244922e+02 1.544085062620544901e+00 2.981395596747599824e-02
1.392165485761481247e-01 1.325732307084665536e+02 1.590309778807394103e+00 3.010184280077283364e-02
1.408179276241604549e-01 1.341167534756472719e+02 1.636991303179867518e+00 3.038511830757431240e-02
1.424193066721728129e-01 1.356608096646839101e+02 1.684122759904862487e+00 3.066374004200433587e-02
1.440206857201851431e-01 1.372053982978710280e+02 1.731697199884379090e+00 3.093766846062014422e-02
1.456220647681975011e-01 1.387505183415920555e+02 1.779707605079873467e+00 3.120686683016900623e-02
1.472234438162098313e-01 1.402961687074289898e+02 1.828146892707698923e+00 3.147130113740718299e-02
1.488248228642221893e-01 1.418423482532685114e+02 1.877007919308442130e+00 3.173094000099529327e-02
1.504262019122345195e-01 1.433890557844032116e+02 1.926283484692940196e+00 3.198575458548165440e-02
1.520275809602468775e-01 1.449362900546283868e+02 1.975966335767832094e+00 3.223571851738136346e-02
1.536289600082592077e-01 1.464840497673308164e+02 2.026049170243462871e+00 3.248080780335720757e-02
1.552303390562715657e-01 1.480323335765720856e+02 2.076524640227027874e+00 3.272100075050474871e-02
1.568317181042838959e-01 1.495811400881617601e+02 2.127385355703793390e+00 3.295627788874319619e-02
1.584330971522962539e-01 1.511304678607226037e+02 2.178623887909302947e+00 3.318662189531108864e-02
1.600344762003085841e-01 1.526803154067470700e+02 2.230232772595415192e+00 3.341201752136439829e-02
1.616358552483209421e-01 1.542306811936419138e+02 2.282204513193091255e+00 3.363245152067358829e-02
1.632372342963332723e-01 1.557815636447638781e+02 2.334531583874782878e+00 3.384791258041476569e-02
1.648386133443456303e-01 1.573329611404435013e+02 2.387206432519340726e+00 3.405839125404969830e-02
1.664399923923579605e-01 1.588848720189969868e+02 2.440221483582297957e+00 3.426387989628853353e-02
1.680413714403703185e-01 1.604372945777280108e+02 2.493569140874440482e+00 3.446437260012819026e-02
1.696427504883826487e-01 1.619902270739153494e+02 2.547241790251524307e+00 3.465986513596060886e-02
1.712441295363950067e-01 1.635436677257899589e+02 2.601231802218043843e+00 3.485035489274310172e-02
1.728455085844073369e-01 1.650976147134978760e+02 2.655531534447910680e+00 3.503584082122465637e-02
1.744468876324196949e-01 1.666520661800520600e+02 2.710133334224945401e+00 3.521632337922150913e-02
1.760482666804320251e-01 1.682070202322696844e+02 2.765029540806039687e+00 3.539180447893625764e-02
1.776496457284443831e-01 1.697624749416980308e+02 2.820212487709896187e+00 3.556228743631470457e-02
1.792510247764567133e-01 1.713184283455260584e+02 2.875674504934199405e+00 3.572777692243621350e-02
1.808524038244690713e-01 1.728748784474836100e+02 2.931407921104137060e+00 3.588827891693339295e-02
1.824537828724814015e-01 1.744318232187274020e+02 2.987405065555129191e+00 3.604380066343845085e-02
1.840551619204937595e-01 1.759892605987132868e+02 3.043658270352695983e+00 3.619435062705448486e-02
1.856565409685060897e-01 1.775471884960568332e+02 3.100159872252338467e+00 3.633993845385119492e-02
1.872579200165184199e-01 1.791056047893795551e+02 3.156902214602376411e+00 3.648057493238579529e-02
1.888592990645307779e-01 1.806645073281427472e+02 3.213877649192649955e+00 3.661627195725175588e-02
1.904606781125431358e-01 1.822238939334681334e+02 3.271078538052038631e+00 3.674704249465850919e-02
1.920620571605554661e-01 1.837837623989472888e+02 3.328497255197757188e+00 3.687290055004895789e-02
1.936634362085677963e-01 1.853441104914358277e+02 3.386126188339411591e+00 3.699386113776077789e-02
1.952648152565801543e-01 1.869049359518378139e+02 3.443957740540807944e+00 3.710994025274140518e-02
1.968661943045925122e-01 1.884662364958768990e+02 3.501984331842548315e+00 3.722115484432797494e-02
1.984675733526048425e-01 1.900280098148541583e+02 3.560198400848478606e+00 3.732752279210499458e-02
2.760498677739802731e-01 2.668136365744831551e+02 1.031819526203219439e+01 1.372670966513087065e-01
3.536321621953556482e-01 3.465296762729121838e+02 2.533986962293920797e+01 2.372066705105123630e-01
4.312144566167310789e-01 4.304569918690368695e+02 4.957479458578083609e+01 3.371462443697160749e-01
5.087967510381065095e-01 5.196026394937817940e+02 8.425656967114056783e+01 4.370858182289197869e-01
5.863790454594819401e-01 6.148698643325599278e+02 1.308728974127892286e+02 5.370253920881236098e-01
6.639613398808572597e-01 7.171328797227838550e+02 1.911152435557651756e+02 6.360124236870720038e-01
7.415436343022328014e-01 8.272586689693353037e+02 2.662249949677363929e+02 7.230710929356815031e-01
8.191259287236081210e-01 9.459461442305456558e+02 3.508816785391269377e+02 7.049885584795013704e-01
8.967082231449836627e-01 1.072832498382440235e+03 4.391050771224653886e+02 6.869060240233211267e-01
9.742905175663589823e-01 1.207490726815061635e+03 5.303085622356743443e+02 6.688234895671409941e-01
1.051872811987734524e+00 1.349516718358600201e+03 6.239438840985787920e+02 6.507409551109607504e-01
1.129455106409109844e+00 1.498526891303196862e+03 7.194979706056315081e+02 6.326584206547806177e-01
1.207037400830485385e+00 1.654156278889007808e+03 8.164902293898713879e+02 6.145758861986003740e-01
1.284619695251860705e+00 1.816056947463725919e+03 9.144702301418020625e+02 5.964933517424202414e-01
1.362201989673236247e+00 1.983896666792666110e+03 1.013015681812960793e+03 5.784108172862399977e-01
1.439784284094611566e+00 2.157357775492997462e+03 1.111730643658950385e+03 5.603282828300598650e-01
1.517366578515986886e+00 2.336136200235379420e+03 1.210243925377620144e+03 5.422457483738797324e-01
1.594948872937362427e+00 2.519940598094357483e+03 1.308207642825610037e+03 5.241632139176994887e-01
1.672531167358737747e+00 2.708491598959800285e+03 1.405295903717834335e+03 5.060806794615193560e-01
1.750113461780113289e+00 2.901521130313603862e+03 1.501203603423343566e+03 4.879981450053391678e-01
1.827695756201488608e+00 3.098771810607789121e+03 1.595645315164097838e+03 4.699156105491589797e-01
1.905278050622864150e+00 3.299996400395583805e+03 1.688354262055908066e+03 4.518330760929787915e-01
1.982860345044239470e+00 3.504957302560805147e+03 1.779081360807579358e+03 4.337505416367986588e-01
2.060442639465614789e+00 3.713426104664677950e+03 1.867594328723034778e+03 4.156680071806184706e-01
