# density  energy_density  pressure   sound_speed_squared  [All in nuclear units]
2.720000000000000022e-14 2.529924618736292620e-11 1.061056609100270887e-19 3.766610435412189122e-08
1.269999999999999890e-13 1.181251617980081254e-10 4.870113551826584858e-18 6.497781477172163475e-08
6.929999999999999754e-13 6.445728594625782745e-10 1.018299070687946017e-16 3.033770597342807186e-07
6.295000000000000137e-12 5.855111460395753757e-09 5.487150723824490656e-15 1.763710043904196507e-06
1.581000000000000150e-11 1.470523320212576141e-08 2.904239460150760759e-14 3.559434472327477622e-06
3.971999999999999958e-11 3.694456170323160790e-08 1.439340266754906811e-13 6.772854871245677111e-06
9.975999999999999982e-11 9.278976412613005154e-08 6.812143616221268841e-13 1.246890511177539320e-05
2.505999999999999928e-10 2.330928829758143313e-07 3.107749196951638608e-12 2.212095130576091967e-05
6.294000000000000186e-10 5.854398883216247602e-07 1.363250409771533549e-11 3.761981047239428883e-05
1.581000000000000021e-09 1.470619631082054101e-06 5.726014178088476303e-11 6.095350986710739404e-05
3.971999999999999932e-09 3.694861084648016046e-06 2.210019573374265380e-10 8.628023653304385055e-05
5.000000000000000105e-09 4.651201787816927976e-06 3.071485916280120014e-10 9.387863480799757518e-05
9.975999999999999465e-09 9.280587964640925786e-06 8.385361004129998845e-10 1.356922228656245837e-04
1.989999999999999952e-08 1.851419242998081003e-05 2.287763168863418088e-09 1.782101978513718314e-04
3.972999999999999908e-08 3.696699295748789187e-05 6.061583099087538954e-09 2.308134738384234820e-04
7.925999999999999637e-08 7.375765469301719828e-05 1.575347858094044765e-08 2.960532096713864875e-04
1.580999999999999930e-07 1.471491184379128891e-04 3.910429618672550719e-08 3.402859755131850544e-04
1.991000000000000027e-07 1.853209783927820692e-04 5.252045687899177454e-08 3.626488188833278743e-04
3.155999999999999938e-07 2.938002528823880299e-04 9.730770378831954314e-08 4.630767356912104081e-04
5.000999999999999849e-07 4.656344063839075714e-04 1.837494945860225819e-07 5.430301232045120323e-04
6.295999999999999732e-07 5.862651417037388971e-04 2.503103884558263872e-07 5.605192962670089638e-04
9.666999999999999941e-07 9.003386739730535665e-04 4.324450868778576936e-07 5.993081670211623108e-04
1.531999999999999901e-06 1.427170885631398036e-03 7.780217275717420968e-07 7.125938556504039095e-04
2.506999999999999883e-06 2.336134972129507662e-03 1.471005394641589826e-06 8.121876172121876309e-04
3.974000000000000407e-06 3.704315759716615697e-03 2.695705763844323844e-06 9.780674166779417152e-04
4.830000000000000343e-06 4.502887798316278223e-03 3.503988717694660908e-06 1.046253037768318664e-03
6.080999999999999885e-06 5.670217999231269741e-03 4.731126407333307547e-06 1.056224360839501646e-03
7.930000000000000308e-06 7.396012414119570652e-03 6.599662989063778187e-06 1.109203753630785610e-03
9.982000000000000313e-06 9.311815711689977113e-03 8.879881089227186733e-06 1.271216815433141075e-03
1.256999999999999993e-05 1.172874412604260098e-02 1.207676739913533738e-05 1.374195438212825332e-03
1.521999999999999997e-05 1.420427250933824909e-02 1.547541302213394990e-05 1.371610497379100249e-03
1.991000000000000080e-05 1.858690797761085312e-02 2.160710455847765458e-05 1.426578142835871997e-03
2.506999999999999883e-05 2.341050104039446925e-02 2.908031724375689851e-05 1.672007475975408053e-03
2.790999999999999875e-05 2.606604784714952258e-02 3.357009132255487721e-05 1.709425557744154774e-03
3.806999999999999973e-05 3.556967988784798945e-02 4.986781576435106434e-05 1.720407281314112165e-03
5.063000000000000145e-05 4.732434580343149871e-02 7.073400252905581275e-05 1.829889149838781265e-03
6.592000000000000583e-05 6.164112392498975052e-02 9.765037643900635188e-05 1.930242980462695823e-03
8.433000000000000066e-05 7.888776783401378612e-02 1.317235490470395893e-04 2.021055815200022837e-03
1.062000000000000064e-04 9.938561165478684845e-02 1.740088341640037047e-04 2.104789529260958983e-03
1.321000000000000126e-04 1.236720406455826121e-01 2.260189757651373944e-04 2.178291718403657477e-03
1.623999999999999901e-04 1.520974545104751274e-01 2.888169908545388338e-04 2.240170365918073281e-03
1.689999999999999879e-04 1.582907717069566844e-01 3.027354772999506964e-04 2.254509350360745651e-03
1.758999999999999930e-04 1.647661861691531171e-01 3.173785841705756782e-04 2.268169273277113179e-03
1.830000000000000029e-04 1.714298948183871907e-01 3.325196584577469103e-04 2.276170334580628063e-03
1.901999999999999882e-04 1.781880600978280049e-01 3.479577791899843742e-04 2.292561569242367037e-03
1.977000000000000079e-04 1.852284385240466902e-01 3.641242634600037713e-04 2.299943765467868384e-03
2.054000000000000053e-04 1.924572004474696396e-01 3.808304060475003897e-04 2.322187632288155723e-03
2.079000000000000119e-04 1.948043378760714872e-01 3.864137987380476553e-04 2.435429768083530178e-03
2.081999999999999921e-04 1.950859988578999005e-01 3.870314100985603909e-04 1.950065624557156818e-03
2.090999999999999868e-04 1.959309855029948977e-01 3.881261957135444685e-04 6.411875526909013856e-04
2.159999999999999919e-04 2.024093317906446865e-01 3.940874488768042125e-04 1.199166870571831411e-03
2.231000000000000019e-04 2.090756740932291913e-01 4.013938420547467825e-04 9.928616047829054436e-04
2.311000000000000066e-04 2.165873044433437034e-01 4.085241694843774404e-04 9.056166966301716637e-04
2.401000000000000085e-04 2.250381721984245909e-01 4.159700687886608468e-04 8.565463878902855599e-04
2.500000000000000052e-04 2.343344406330727658e-01 4.237602369176299592e-04 8.194318812157330018e-04
2.642999999999999733e-04 2.477629128650125634e-01 4.345596643180389446e-04 7.890063723638815647e-04
3.052999999999999941e-04 2.862671839140227270e-01 4.644058706720978241e-04 7.612775562167708662e-04
3.533000000000000224e-04 3.313503829113090826e-01 4.987577676308450197e-04 7.626578558207241024e-04
4.075999999999999871e-04 3.823564017794535141e-01 5.381334366106255759e-04 7.813048116943254948e-04
4.679999999999999915e-04 4.390986251953180042e-01 5.832692638200615834e-04 8.096035963157804938e-04
5.341000000000000261e-04 5.012024644415256081e-01 6.346556894078133086e-04 8.452514814113673558e-04
6.059000000000000366e-04 5.686690698184251325e-01 6.930641302632923034e-04 8.862253587289389486e-04
7.661000000000000275e-04 7.192254882508629654e-01 8.328184776562496576e-04 9.702780530519144065e-04
1.262000000000000101e-03 1.185459127778160093e+00 1.338484980802662205e-03 1.198863597978450275e-03
1.894999999999999983e-03 1.780909071169781921e+00 2.123481960401060308e-03 1.437771491635827115e-03
2.673000000000000029e-03 2.513147344746868850e+00 3.261860252001994032e-03 1.671524566936786766e-03
3.605999999999999830e-03 3.391736073717691369e+00 4.828136641022434151e-03 1.893900408978071038e-03
4.709999999999999777e-03 4.431905410739045870e+00 6.903512974832482635e-03 2.096551352830673849e-03
7.496000000000000059e-03 7.058993649504918366e+00 1.289742191321638018e-02 2.466596387205546859e-03
1.119999999999999989e-02 1.055540362104863661e+01 2.212077014004794340e-02 2.809304433764861584e-03
1.600000000000000033e-02 1.509117352747679952e+01 3.559566804390756900e-02 3.132325055719984222e-03
2.206999999999999934e-02 2.083310616724802244e+01 5.457322122755020599e-02 3.477840948757840792e-03
2.947999999999999926e-02 2.785007348564149154e+01 8.049103664263126956e-02 3.909302116317729670e-03
4.268000000000000266e-02 4.036707211535221518e+01 1.353887601042819133e-01 4.862066536253286525e-03
6.219999999999999835e-02 5.891246509830522626e+01 2.419691225623893105e-01 6.630786177272363080e-03
7.316999999999999893e-02 6.935151695866235855e+01 3.161896974764099033e-01 7.588671314871411888e-03
7.595999999999999974e-02 7.200836722020332559e+01 3.371250777904805096e-01 8.170805199905810390e-03
7.685877551020407761e-02 7.286441679208996902e+01 3.442047553428097539e-01 8.369531454310682322e-03
7.775755102040816935e-02 7.372055014805052053e+01 3.514550189732014163e-01 8.567689973426863281e-03
7.865632653061224722e-02 7.457676828914132727e+01 3.588754683498300846e-01 8.765383169933041452e-03
7.955510204081632508e-02 7.543307218946526405e+01 3.664657910615236047e-01 8.962713456507901549e-03
8.045387755102040295e-02 7.628946279807884423e+01 3.742257626462233699e-01 9.159783245830133494e-03
8.135265306122449469e-02 7.714594104081474768e+01 3.821552466216203148e-01 9.356694950578423736e-03
8.225142857142857256e-02 7.800250782202340361e+01 3.902541945178506499e-01 9.553550983431453522e-03
8.315020408163265042e-02 7.885916402623976751e+01 3.985226459121503639e-01 9.750453757067916241e-03
8.404897959183672829e-02 7.971591051977755171e+01 4.069607284653711798e-01 9.947505684166487935e-03
8.494775510204082003e-02 8.057274815225606801e+01 4.155686579602754782e-01 1.014480917740587067e-02
8.584653061224489790e-02 8.142967775806295094e+01 4.243467383415314709e-01 1.034246664946473528e-02
8.674530612244897576e-02 8.228670015775566071e+01 4.332953617573416794e-01 1.054058051302177688e-02
8.764408163265305363e-02 8.314381615940583004e+01 4.424150086026403805e-01 1.073925318075567847e-02
8.854285714285714537e-02 8.400102655988858658e+01 4.517062475638073393e-01 1.093858706534513517e-02
8.944163265306122323e-02 8.485833214611984943e+01 4.611697356648469803e-01 1.113868457946881781e-02
9.034040816326530110e-02 8.571573369624492500e+01 4.708062183149928082e-01 1.133964813580542498e-02
9.123918367346939284e-02 8.657323198077961024e+01 4.806165293576971642e-01 1.154158014703363967e-02
9.213795918367347071e-02 8.743082776370717113e+01 4.906015911209749003e-01 1.174458302583214486e-02
9.303673469387754857e-02 8.828852180353310075e+01 5.007624144690758783e-01 1.194875918487963394e-02
9.393551020408162644e-02 8.914631485429949009e+01 5.111000988554600388e-01 1.215421103685478642e-02
9.483428571428570431e-02 9.000420766656094429e+01 5.216158323770594407e-01 1.236104099443629048e-02
9.573306122448979605e-02 9.086220098832419012e+01 5.323108918298113945e-01 1.256935147030284125e-02
9.663183673469387391e-02 9.172029556595278166e+01 5.431866427654521434e-01 1.277924487713311304e-02
9.753061224489795178e-02 9.257849214503930568e+01 5.542445395495655402e-01 1.299082362760579402e-02
9.842938775510204352e-02 9.343679147124473161e+01 5.654861254208806143e-01 1.320419013439958107e-02
9.932816326530612139e-02 9.429519429110891338e+01 5.769130325518181390e-01 1.341944681019314675e-02
1.002269387755101993e-01 9.515370135283153274e+01 5.885269821102908638e-01 1.363669606766518619e-02
1.011257142857142910e-01 9.601231340702575778e+01 6.003297843227588526e-01 1.385604031949438583e-02
1.020244897959183689e-01 9.687103120744603757e+01 6.123233385385499217e-01 1.407758197835942866e-02
1.029232653061224467e-01 9.772985551169026053e+01 6.245096332954561680e-01 1.430142345693899766e-02
1.038220408163265246e-01 9.858878708187825168e+01 6.368907463866172458e-01 1.452766716791178969e-02
1.047208163265306025e-01 9.944782668530747571e+01 6.494688449287066012e-01 1.475641552395648079e-02
1.056195918367346942e-01 1.003069750950863863e+02 6.622461854314378726e-01 1.498777093775176955e-02
1.065183673469387721e-01 1.011662330907476246e+02 6.752251138684085552e-01 1.522183582197633028e-02
1.074171428571428499e-01 1.020256014588399154e+02 6.884080657493060196e-01 1.545871258930885117e-02
1.083159183673469417e-01 1.028850809935021715e+02 7.017975661934937603e-01 1.569850365242802387e-02
1.092146938775510195e-01 1.037446724970176462e+02 7.153962300050048517e-01 1.594131142401253309e-02
1.101134693877550974e-01 1.046043767803519415e+02 7.292067617489701448e-01 1.618723831674106356e-02
1.110122448979591891e-01 1.054641946636731404e+02 7.432319558295056305e-01 1.643638674329230692e-02
1.119110204081632531e-01 1.063241269768557800e+02 7.574746965690891676e-01 1.668885911634494096e-02
1.128097959183673449e-01 1.071841745599699038e+02 7.719379582894611014e-01 1.694475784857765732e-02
1.137085714285714227e-01 1.080443382637542555e+02 7.866248053940716467e-01 1.720418535266914420e-02
1.146073469387755006e-01 1.089046189500761557e+02 8.015383924521192194e-01 1.746724404129808284e-02
1.155061224489795924e-01 1.097650174923766855e+02 8.166819642842055860e-01 1.773403632714316489e-02
1.164048979591836702e-01 1.106255347761035068e+02 8.320588560496462449e-01 1.800466462288307160e-02
1.173036734693877481e-01 1.114861716991303666e+02 8.476724933354754521e-01 1.827923134119649462e-02
1.182024489795918398e-01 1.123469291721647920e+02 8.635263922471784204e-01 1.855783889476212214e-02
1.191012244897959177e-01 1.132078081191439338e+02 8.796241595011927705e-01 1.884058969625862501e-02
1.199999999999999956e-01 1.140688094776191548e+02 8.959694925192196457e-01 1.912758615836470874e-02
1.208334106606860081e-01 1.148673033615092436e+02 9.113504410004906742e-01 1.939729839653100626e-02
1.216668213213720068e-01 1.156659040828430989e+02 9.269498013387599267e-01 1.966941838429429878e-02
1.225002319820580193e-01 1.164646124127337572e+02 9.427695709078095510e-01 1.994394893541859975e-02
1.233336426427440180e-01 1.172634291254031496e+02 9.588117508322280269e-01 2.022089294039090823e-02
1.241670533034300306e-01 1.180623549981451248e+02 9.750783460642573619e-01 2.050025336757279118e-02
1.250004639641160431e-01 1.188613908112898372e+02 9.915713654616611361e-01 2.078203326431666761e-02
1.258338746248020279e-01 1.196605373481686598e+02 1.008292821866593636e+00 2.106623575804800891e-02
1.266672852854880404e-01 1.204597953950815423e+02 1.025244732185444763e+00 2.135286405731334769e-02
1.275006959461740530e-01 1.212591657412653916e+02 1.042429117469629629e+00 2.164192145279620824e-02
1.283341066068600655e-01 1.220586491788641581e+02 1.059848002997308969e+00 2.193341131830100349e-02
1.291675172675460503e-01 1.228582465028990782e+02 1.077503418356010156e+00 2.222733711170549187e-02
1.300009279282320629e-01 1.236579585112420148e+02 1.095397397526132854e+00 2.252370237588377511e-02
1.308343385889180754e-01 1.244577860045885132e+02 1.113531978965307090e+00 2.282251073959941021e-02
1.316677492496040880e-01 1.252577297864324635e+02 1.131909205693597320e+00 2.312376591836960010e-02
1.325011599102900728e-01 1.260577906630428231e+02 1.150531125379519848e+00 2.342747171530239550e-02
1.333345705709760853e-01 1.268579694434400835e+02 1.169399790426862928e+00 2.373363202190494417e-02
1.341679812316620979e-01 1.276582669393748830e+02 1.188517258062278925e+00 2.404225081886658330e-02
1.350013918923481104e-01 1.284586839653071024e+02 1.207885590423643629e+00 2.435333217681520321e-02
1.358348025530340952e-01 1.292592213383865385e+02 1.227506854649154100e+00 2.466688025704842635e-02
1.366682132137201078e-01 1.300598798784344297e+02 1.247383122967154367e+00 2.498289931223948712e-02
1.375016238744061203e-01 1.308606604079255646e+02 1.267516472786661685e+00 2.530139368711972758e-02
1.383350345350921329e-01 1.316615637519718973e+02 1.287908986788590449e+00 2.562236781913684522e-02
1.391684451957781177e-01 1.324625907383067727e+02 1.308562753017645575e+00 2.594582623908998908e-02
1.400018558564641302e-01 1.332637421972706875e+02 1.329479864974878467e+00 2.627177357174239128e-02
1.408352665171501428e-01 1.340650189617966532e+02 1.350662421710879579e+00 2.660021453641198824e-02
1.416686771778361553e-01 1.348664218673982020e+02 1.372112527919604030e+00 2.693115394754021924e-02
1.425020878385221401e-01 1.356679517521565970e+02 1.393832294032807839e+00 2.726459671523961958e-02
1.433354984992081527e-01 1.364696094567102591e+02 1.415823836315086792e+00 2.760054784582094412e-02
1.441689091598941652e-01 1.372713958242437400e+02 1.438089276959491958e+00 2.793901244229964401e-02
1.450023198205801778e-01 1.380733117004784845e+02 1.460630744183725627e+00 2.827999570488296671e-02
1.458357304812661626e-01 1.388753579336638211e+02 1.483450372326889477e+00 2.862350293143721414e-02
1.466691411419521751e-01 1.396775353745690325e+02 1.506550301946783410e+00 2.896953951793616519e-02
1.475025518026381877e-01 1.404798448764760224e+02 1.529932679917729077e+00 2.931811095889081537e-02
1.483359624633242002e-01 1.412822872951722957e+02 1.553599659528922317e+00 2.966922284776078375e-02
1.491693731240101850e-01 1.420848634889456150e+02 1.577553400583288745e+00 3.002288087734785935e-02
1.500027837846961976e-01 1.428875743185786007e+02 1.601796069496841168e+00 3.037909084017203012e-02
1.508361944453822101e-01 1.436904206473436716e+02 1.626329839398515054e+00 3.073785862883017181e-02
1.516696051060682227e-01 1.444934033410000040e+02 1.651156890230486729e+00 3.109919023633784738e-02
1.525030157667542352e-01 1.452965232677891549e+02 1.676279408848950547e+00 3.146309175645466139e-02
1.533364264274402200e-01 1.460997812984337543e+02 1.701699589125349910e+00 3.182956938399331137e-02
1.541698370881262325e-01 1.469031783061343504e+02 1.727419632048055043e+00 3.219862941511253407e-02
1.550032477488122451e-01 1.477067151665684719e+02 1.753441745824465547e+00 3.257027824759452933e-02
1.558366584094982299e-01 1.485103927578894343e+02 1.779768145983543493e+00 3.294452238110693459e-02
1.566700690701842424e-01 1.493142119607267091e+02 1.806401055478760176e+00 3.332136841744977318e-02
1.575034797308702550e-01 1.501181736581855546e+02 1.833342704791439459e+00 3.370082306078739376e-02
1.583368903915562675e-01 1.509222787358477547e+02 1.860595332034504334e+00 3.408289311786595610e-02
1.591703010522422801e-01 1.517265280817736084e+02 1.888161183056605852e+00 3.446758549821655332e-02
1.600037117129282649e-01 1.525309225865030385e+02 1.916042511546629301e+00 3.485490721434413713e-02
1.608371223736142774e-01 1.533354631430586039e+02 1.944241579138573872e+00 3.524486538190284290e-02
2.391873851823160257e-01 2.302185472075422012e+02 8.118606347336836393e+00 1.240231072261410855e-01
3.175376479910178018e-01 3.102009669070494624e+02 2.167285471791025486e+01 2.128013490703793975e-01
3.958879107997195224e-01 3.944538964698801351e+02 4.345417339193409134e+01 3.015795909146176124e-01
4.742381736084212429e-01 4.838639208775412612e+02 7.452855986972035396e+01 3.903578327588558272e-01
5.525884364171229635e-01 5.792127872005871723e+02 1.161546333059487921e+02 4.791360746030940976e-01
6.309386992258247950e-01 6.812505247447968486e+02 1.697838584847891639e+02 5.679143164473323679e-01
7.092889620345265156e-01 7.907322308729850420e+02 2.370715741564869461e+02 6.566925582915705828e-01
7.876392248432282361e-01 9.083326345385625018e+02 3.133405167491927159e+02 6.416806048143929297e-01
8.659894876519299567e-01 1.033318895078763489e+03 3.770637781121436092e+02 3.876506700429329100e-01
9.443397504606316772e-01 1.162584342999673026e+03 4.105166182666022223e+02 1.336207352714727792e-01
1.022690013269333509e+00 1.293999104384100747e+03 4.337699621561782806e+02 2.195915949337023387e-01
1.101040276078035340e+00 1.427765174545051423e+03 4.748727894364322424e+02 3.924808175846836167e-01
1.179390538886736950e+00 1.565247252143278729e+03 5.409965457645807874e+02 5.653700402356645061e-01
1.257740801695438781e+00 1.707925986520665219e+03 6.344123206272836342e+02 7.382592628866457840e-01
1.336091064504140391e+00 1.857258539273714177e+03 7.581456158983105524e+02 9.111484855376266179e-01
1.414441327312842223e+00 2.014717865330259428e+03 8.998975538174740905e+02 8.904339150943640924e-01
1.492791590121544054e+00 2.180105059696302305e+03 1.038350989530399829e+03 7.882095008973437622e-01
1.571141852930245664e+00 2.352452120212105456e+03 1.165090068797610002e+03 6.859850867003236541e-01
1.649492115738947495e+00 2.530772246066712796e+03 1.278062251840138970e+03 5.837606725033032129e-01
1.727842378547649105e+00 2.714082561446394720e+03 1.375518187452321399e+03 4.815362583062831603e-01
1.806192641356350936e+00 2.901417484497693295e+03 1.456016366631296478e+03 3.793118441092627746e-01
1.884542904165052768e+00 3.091839787630462524e+03 1.518420104216782192e+03 2.770874299122423334e-01
1.962893166973754377e+00 3.284690358940613351e+03 1.577723168985336542e+03 3.374579463914977873e-01
2.041243429782456431e+00 3.480152987865814339e+03 1.649976473759320015e+03 4.012462249622792410e-01
