# density  energy_density  pressure   sound_speed_squared  [All in nuclear units]
2.720000000000000022e-14 2.529924618736292620e-11 1.061056609100270887e-19 3.766610435412189122e-08
1.269999999999999890e-13 1.181251617980081254e-10 4.870113551826584858e-18 6.497781477172163475e-08
6.929999999999999754e-13 6.445728594625782745e-10 1.018299070687946017e-16 3.033770597342807186e-07
6.295000000000000137e-12 5.855111460395753757e-09 5.487150723824490656e-15 1.763710043904196507e-06
1.581000000000000150e-11 1.470523320212576141e-08 2.904239460150760759e-14 3.559434472327477622e-06
3.971999999999999958e-11 3.694456170323160790e-08 1.439340266754906811e-13 6.772854871245677111e-06
9.975999999999999982e-11 9.278976412613005154e-08 6.812143616221268841e-13 1.246890511177539320e-05
2.505999999999999928e-10 2.330928829758143313e-07 3.107749196951638608e-12 2.212095130576091967e-05
6.294000000000000186e-10 5.854398883216247602e-07 1.363250409771533549e-11 3.761981047239428883e-05
1.581000000000000021e-09 1.470619631082054101e-06 5.726014178088476303e-11 6.095350986710739404e-05
3.971999999999999932e-09 3.694861084648016046e-06 2.210019573374265380e-10 8.628023653304385055e-05
5.000000000000000105e-09 4.651201787816927976e-06 3.071485916280120014e-10 9.387863480799757518e-05
9.975999999999999465e-09 9.280587964640925786e-06 8.385361004129998845e-10 1.356922228656245837e-04
1.989999999999999952e-08 1.851419242998081003e-05 2.287763168863418088e-09 1.782101978513718314e-04
3.972999999999999908e-08 3.696699295748789187e-05 6.061583099087538954e-09 2.308134738384234820e-04
7.925999999999999637e-08 7.375765469301719828e-05 1.575347858094044765e-08 2.960532096713864875e-04
1.580999999999999930e-07 1.471491184379128891e-04 3.910429618672550719e-08 3.402859755131850544e-04
1.991000000000000027e-07 1.853209783927820692e-04 5.252045687899177454e-08 3.626488188833278743e-04
3.155999999999999938e-07 2.938002528823880299e-04 9.730770378831954314e-08 4.630767356912104081e-04
5.000999999999999849e-07 4.656344063839075714e-04 1.837494945860225819e-07 5.430301232045120323e-04
6.295999999999999732e-07 5.862651417037388971e-04 2.503103884558263872e-07 5.605192962670089638e-04
9.666999999999999941e-07 9.003386739730535665e-04 4.324450868778576936e-07 5.993081670211623108e-04
1.531999999999999901e-06 1.427170885631398036e-03 7.780217275717420968e-07 7.125938556504039095e-04
2.506999999999999883e-06 2.336134972129507662e-03 1.471005394641589826e-06 8.121876172121876309e-04
3.974000000000000407e-06 3.704315759716615697e-03 2.695705763844323844e-06 9.780674166779417152e-04
4.830000000000000343e-06 4.502887798316278223e-03 3.503988717694660908e-06 1.046253037768318664e-03
6.080999999999999885e-06 5.670217999231269741e-03 4.731126407333307547e-06 1.056224360839501646e-03
7.930000000000000308e-06 7.396012414119570652e-03 6.599662989063778187e-06 1.109203753630785610e-03
9.982000000000000313e-06 9.311815711689977113e-03 8.879881089227186733e-06 1.271216815433141075e-03
1.256999999999999993e-05 1.172874412604260098e-02 1.207676739913533738e-05 1.374195438212825332e-03
1.521999999999999997e-05 1.420427250933824909e-02 1.547541302213394990e-05 1.371610497379100249e-03
1.991000000000000080e-05 1.858690797761085312e-02 2.160710455847765458e-05 1.426578142835871997e-03
2.506999999999999883e-05 2.341050104039446925e-02 2.908031724375689851e-05 1.672007475975408053e-03
2.790999999999999875e-05 2.606604784714952258e-02 3.357009132255487721e-05 1.709425557744154774e-03
3.806999999999999973e-05 3.556967988784798945e-02 4.986781576435106434e-05 1.720407281314112165e-03
5.063000000000000145e-05 4.732434580343149871e-02 7.073400252905581275e-05 1.829889149838781265e-03
6.592000000000000583e-05 6.164112392498975052e-02 9.765037643900635188e-05 1.930242980462695823e-03
8.433000000000000066e-05 7.888776783401378612e-02 1.317235490470395893e-04 2.021055815200022837e-03
1.062000000000000064e-04 9.938561165478684845e-02 1.740088341640037047e-04 2.104789529260958983e-03
1.321000000000000126e-04 1.236720406455826121e-01 2.260189757651373944e-04 2.178291718403657477e-03
1.623999999999999901e-04 1.520974545104751274e-01 2.888169908545388338e-04 2.240170365918073281e-03
1.689999999999999879e-04 1.582907717069566844e-01 3.027354772999506964e-04 2.254509350360745651e-03
1.758999999999999930e-04 1.647661861691531171e-01 3.173785841705756782e-04 2.268169273277113179e-03
1.830000000000000029e-04 1.714298948183871907e-01 3.325196584577469103e-04 2.276170334580628063e-03
1.901999999999999882e-04 1.781880600978280049e-01 3.479577791899843742e-04 2.292561569242367037e-03
1.977000000000000079e-04 1.852284385240466902e-01 3.641242634600037713e-04 2.299943765467868384e-03
2.054000000000000053e-04 1.924572004474696396e-01 3.808304060475003897e-04 2.322187632288155723e-03
2.079000000000000119e-04 1.948043378760714872e-01 3.864137987380476553e-04 2.435429768083530178e-03
2.081999999999999921e-04 1.950859988578999005e-01 3.870314100985603909e-04 1.950065624557156818e-03
2.090999999999999868e-04 1.959309855029948977e-01 3.881261957135444685e-04 6.411875526909013856e-04
2.159999999999999919e-04 2.024093317906446865e-01 3.940874488768042125e-04 1.199166870571831411e-03
2.231000000000000019e-04 2.090756740932291913e-01 4.013938420547467825e-04 9.928616047829054436e-04
2.311000000000000066e-04 2.165873044433437034e-01 4.085241694843774404e-04 9.056166966301716637e-04
2.401000000000000085e-04 2.250381721984245909e-01 4.159700687886608468e-04 8.565463878902855599e-04
2.500000000000000052e-04 2.343344406330727658e-01 4.237602369176299592e-04 8.194318812157330018e-04
2.642999999999999733e-04 2.477629128650125634e-01 4.345596643180389446e-04 7.890063723638815647e-04
3.052999999999999941e-04 2.862671839140227270e-01 4.644058706720978241e-04 7.612775562167708662e-04
3.533000000000000224e-04 3.313503829113090826e-01 4.987577676308450197e-04 7.626578558207241024e-04
4.075999999999999871e-04 3.823564017794535141e-01 5.381334366106255759e-04 7.813048116943254948e-04
4.679999999999999915e-04 4.390986251953180042e-01 5.832692638200615834e-04 8.096035963157804938e-04
5.341000000000000261e-04 5.012024644415256081e-01 6.346556894078133086e-04 8.452514814113673558e-04
6.059000000000000366e-04 5.686690698184251325e-01 6.930641302632923034e-04 8.862253587289389486e-04
7.661000000000000275e-04 7.192254882508629654e-01 8.328184776562496576e-04 9.702780530519144065e-04
1.262000000000000101e-03 1.185459127778160093e+00 1.338484980802662205e-03 1.198863597978450275e-03
1.894999999999999983e-03 1.780909071169781921e+00 2.123481960401060308e-03 1.437771491635827115e-03
2.673000000000000029e-03 2.513147344746868850e+00 3.261860252001994032e-03 1.671524566936786766e-03
3.605999999999999830e-03 3.391736073717691369e+00 4.828136641022434151e-03 1.893900408978071038e-03
4.709999999999999777e-03 4.431905410739045870e+00 6.903512974832482635e-03 2.096551352830673849e-03
7.496000000000000059e-03 7.058993649504918366e+00 1.289742191321638018e-02 2.466596387205546859e-03
1.119999999999999989e-02 1.055540362104863661e+01 2.212077014004794340e-02 2.809304433764861584e-03
1.600000000000000033e-02 1.509117352747679952e+01 3.559566804390756900e-02 3.132325055719984222e-03
2.206999999999999934e-02 2.083310616724802244e+01 5.457322122755020599e-02 3.477840948757840792e-03
2.947999999999999926e-02 2.785007348564149154e+01 8.049103664263126956e-02 3.909302116317729670e-03
4.268000000000000266e-02 4.036707211535221518e+01 1.353887601042819133e-01 4.862066536253286525e-03
6.219999999999999835e-02 5.891246509830522626e+01 2.419691225623893105e-01 6.630786177272363080e-03
7.316999999999999893e-02 6.935151695866235855e+01 3.161896974764099033e-01 7.588671314871411888e-03
7.595999999999999974e-02 7.200836722020332559e+01 3.371250777904805096e-01 8.170805199905812125e-03
7.685877551020407761e-02 7.286441684569263089e+01 3.442139286399480969e-01 8.390961052408607568e-03
7.775755102040816935e-02 7.372055050396477327e+01 3.514977050162378935e-01 8.624541180965705420e-03
7.865632653061224722e-02 7.457676954213701492e+01 3.589877488648934301e-01 8.871073572097848414e-03
7.955510204081632508e-02 7.543307540387620236e+01 3.666950031608247063e-01 9.130086212325794898e-03
8.045387755102040295e-02 7.628946962161853662e+01 3.746300118787286859e-01 9.401107088170287604e-03
8.135265306122449469e-02 7.714595380913645783e+01 3.828029199610787359e-01 9.683664186152083145e-03
8.225142857142857256e-02 7.800252965443347364e+01 3.912234732818624661e-01 9.977285492791919050e-03
8.315020408163265042e-02 7.885919891295003481e+01 3.999010186044293924e-01 1.028149899461055714e-02
8.404897959183672829e-02 7.971596340106135870e+01 4.088445035319736021e-01 1.059583267812873493e-02
8.494775510204082003e-02 8.057282498985411223e+01 4.180624764493363066e-01 1.091981452986721425e-02
8.584653061224489790e-02 8.142978559916481629e+01 4.275630864549546661e-01 1.125297253634673263e-02
8.674530612244897576e-02 8.228684719186786367e+01 4.373540832819227675e-01 1.159483468408804667e-02
8.764408163265305363e-02 8.314401176839896834e+01 4.474428172072502097e-01 1.194492895961190432e-02
8.854285714285714537e-02 8.400128136150262037e+01 4.578362389485284845e-01 1.230278334943906045e-02
8.944163265306122323e-02 8.485865803119126838e+01 4.685408995473193672e-01 1.266792584009025086e-02
9.034040816326530110e-02 8.571614385990633878e+01 4.795629502386880016e-01 1.303988441808623215e-02
9.123918367346939284e-02 8.657374094787040519e+01 4.909081423063934024e-01 1.341818706994775574e-02
9.213795918367347071e-02 8.743145140862034737e+01 5.025818269233439661e-01 1.380236178219556784e-02
9.303673469387754857e-02 8.828927736471446508e+01 5.145889549770096272e-01 1.419193654135041636e-02
9.393551020408162644e-02 8.914722094360233484e+01 5.269340768795582886e-01 1.458643933393305621e-02
9.483428571428570431e-02 9.000528427365163964e+01 5.396213423625620953e-01 1.498539814646422663e-02
9.573306122448979605e-02 9.086346948032394266e+01 5.526545002561875641e-01 1.538834096546469812e-02
9.663183673469387391e-02 9.172177868249050903e+01 5.660368982528491966e-01 1.579479577745519434e-02
9.753061224489795178e-02 9.258021398888487852e+01 5.797714826553698186e-01 1.620429056895648229e-02
9.842938775510204352e-02 9.343877749468208549e+01 5.938607981097455690e-01 1.661635332648930471e-02
9.932816326530612139e-02 9.429747127820139951e+01 6.083069873226718549e-01 1.703051203657440435e-02
1.002269387755101993e-01 9.515629739772506923e+01 6.231117907640392195e-01 1.744629468573254127e-02
1.011257142857142910e-01 9.601525788842936038e+01 6.382765463546513640e-01 1.786322926048446516e-02
1.020244897959183689e-01 9.687435475942083940e+01 6.538021891394695251e-01 1.828084374735091527e-02
1.029232653061224467e-01 9.773358999087466259e+01 6.696892509467314847e-01 1.869866613285264823e-02
1.038220408163265246e-01 9.859296553126992535e+01 6.859378600333279064e-01 1.911622440351041369e-02
1.047208163265306025e-01 9.945248329471743887e+01 7.025477407168666533e-01 1.953304654584495439e-02
1.056195918367346942e-01 1.003121451583757420e+02 7.195182129948878291e-01 1.994866054637703390e-02
1.065183673469387721e-01 1.011719529599523355e+02 7.368481921517268107e-01 2.036259439162738452e-02
1.074171428571428499e-01 1.020319084952855349e+02 7.545361883535628422e-01 2.077437606811675941e-02
1.083159183673469417e-01 1.028920135160040843e+02 7.725803062322119663e-01 2.118353356236592211e-02
1.092146938775510195e-01 1.037522697272603267e+02 7.909782444582621475e-01 2.158959486089560148e-02
1.101134693877550974e-01 1.046126787855352802e+02 8.097272953041765309e-01 2.199208795022655760e-02
1.110122448979591891e-01 1.054732422965112306e+02 8.288243441980110982e-01 2.239054081687954362e-02
1.119110204081632531e-01 1.063339618130096511e+02 8.482658692684262869e-01 2.278448144737529879e-02
1.128097959183673449e-01 1.071948388329919055e+02 8.680479408816994535e-01 2.317343782823458320e-02
1.137085714285714227e-01 1.080558747976197367e+02 8.881662211714534960e-01 2.355693794597814306e-02
1.146073469387755006e-01 1.089170710893732092e+02 9.086159635618645813e-01 2.393450978712671415e-02
1.155061224489795924e-01 1.097784290302243022e+02 9.293920122851080379e-01 2.430568133820107390e-02
1.164048979591836702e-01 1.106399498798633232e+02 9.504888018938395522e-01 2.466998058572193731e-02
1.173036734693877481e-01 1.115016348339763539e+02 9.719003567695254642e-01 2.502693551621007831e-02
1.182024489795918398e-01 1.123634850225715525e+02 9.936202906274473889e-01 2.537607411618624659e-02
1.191012244897959177e-01 1.132255015083529770e+02 1.015641806019233151e+00 2.571692437217116753e-02
1.199999999999999956e-01 1.140876852851395711e+02 1.037957693833784001e+00 2.604901427068562203e-02
1.230957473681176251e-01 1.170586947767259716e+02 1.116994826916819950e+00 2.715625136230218062e-02
1.261914947362352546e-01 1.200317347989202688e+02 1.199452722442189589e+00 2.831384203978595110e-02
1.292872421043528841e-01 1.230068413548184623e+02 1.285487063405740926e+00 2.952194505152529527e-02
1.323829894724705414e-01 1.259840524616764981e+02 1.375254380453422076e+00 3.078063440761300007e-02
1.354787368405881709e-01 1.289634080267438492e+02 1.468911823910345138e+00 3.208990352011926311e-02
1.385744842087058004e-01 1.319449497293707054e+02 1.566616947249986680e+00 3.344966904673982860e-02
1.416702315768234299e-01 1.349287209089332009e+02 1.668527501106360278e+00 3.485977446579110323e-02
1.447659789449410594e-01 1.379147664581609263e+02 1.774801237008871491e+00 3.631999340748628957e-02
1.478617263130586890e-01 1.409031327214904650e+02 1.885595720088565797e+00 3.783003276372626927e-02
1.509574736811763462e-01 1.438938673980978535e+02 2.001068150066502405e+00 3.938953559623264988e-02
1.540532210492939758e-01 1.468870194492949679e+02 2.121375189890743584e+00 4.099808386071120136e-02
1.571489684174116053e-01 1.498826390099976322e+02 2.246672801438637457e+00 4.265520096282713475e-02
1.602447157855292348e-01 1.528807773039986557e+02 2.377116087746188988e+00 4.436035416007275134e-02
1.633404631536468643e-01 1.558814865627999211e+02 2.512859141267020036e+00 4.611295682209311936e-02
1.664362105217644938e-01 1.588848199477760375e+02 2.654054897700048432e+00 4.791237056068183009e-02
1.695319578898821233e-01 1.618908314754583557e+02 2.800854994958061006e+00 4.975790723945171939e-02
1.726277052579997806e-01 1.648995759457451697e+02 2.953409636879165578e+00 5.164883087210855872e-02
1.757234526261174101e-01 1.679111088728586481e+02 3.111867461309996585e+00 5.358435941729105395e-02
1.788191999942350396e-01 1.709254864188769432e+02 3.276375412213873517e+00 5.556366647708328027e-02
1.819149473623526692e-01 1.739427653296908147e+02 3.447078615479016062e+00 5.758588290553583872e-02
1.850106947304703264e-01 1.769630028732322558e+02 3.624120258121812377e+00 5.965009833284747043e-02
1.881064420985879559e-01 1.799862567798461441e+02 3.807641470598052358e+00 6.175536261024722196e-02
1.912021894667055855e-01 1.830125851846707121e+02 3.997781211951329627e+00 6.390068718006952642e-02
1.942979368348232150e-01 1.860420465719151935e+02 4.194676157542478911e+00 6.608504637502903012e-02
1.973936842029408445e-01 1.890746997209153903e+02 4.398460589117321184e+00 6.830737865026698108e-02
2.004894315710584740e-01 1.921106036538685657e+02 4.609266286982052208e+00 7.056658775135356276e-02
2.035851789391761035e-01 1.951498175851452288e+02 4.827222424066627049e+00 7.286154382108886440e-02
2.066809263072937330e-01 1.981924008720861536e+02 5.052455461666483849e+00 7.519108444763629440e-02
2.097766736754113626e-01 2.012384129671979736e+02 5.285089046662042378e+00 7.755401565625477667e-02
2.128724210435289921e-01 2.042879133716623699e+02 5.525243910023714733e+00 7.994911284665273676e-02
2.159681684116466494e-01 2.073409615900824861e+02 5.773037766417736805e+00 8.237512167777742700e-02
2.190639157797642789e-01 2.103976170863912216e+02 6.028585214735033837e+00 8.483075890166431876e-02
2.221596631478819084e-01 2.134579392408525962e+02 6.291997639371730067e+00 8.731471314780840653e-02
2.252554105159995657e-01 2.165219873080881712e+02 6.563383112095664274e+00 8.982564565937381507e-02
2.283511578841171952e-01 2.195898203760636989e+02 6.842846294338708724e+00 9.236219098243346470e-02
2.314469052522348247e-01 2.226614973259792976e+02 7.130488339759645910e+00 9.492295760932062398e-02
2.345426526203524542e-01 2.257370767930021884e+02 7.426406796926885434e+00 9.750652857707889365e-02
2.376383999884700837e-01 2.288166171277873104e+02 7.730695511974676748e+00 1.001114620219161477e-01
2.407341473565877132e-01 2.319001763587360472e+02 8.043444531090386818e+00 1.027362916904974027e-01
2.438298947247053428e-01 2.349878121549372452e+02 8.364740002694208698e+00 1.053795274088518835e-01
2.469256420928229723e-01 2.380795817897483460e+02 8.694664079176154914e+00 1.080396555096190397e-01
2.500213894609406573e-01 2.411755421049661550e+02 9.033294818058564601e+00 1.107151392183147870e-01
2.531171368290582313e-01 2.442757494755432788e+02 9.380706082455466444e+00 1.134044189992648999e-01
2.562128841971759163e-01 2.473802597748106962e+02 9.736967440703342191e+00 1.161059128618225911e-01
2.593086315652934903e-01 2.504891283401583166e+02 1.010214406504038287e+01 1.188180166274610816e-01
2.624043789334111754e-01 2.536024099391441098e+02 1.047629662921472615e+01 1.215391041583152171e-01
2.655001263015287494e-01 2.567201587359813288e+02 1.085948120490417068e+01 1.242675275477264918e-01
2.685958736696464344e-01 2.598424282583790159e+02 1.125174915683332166e+01 1.270016172733356152e-01
2.716916210377640639e-01 2.629692713646904849e+02 1.165314703647588246e+01 1.297396823132513921e-01
3.477795471390341953e-01 3.416451815180826657e+02 2.629192726739408315e+01 2.397505575250046816e-01
4.238674732403042711e-01 4.245000356754900395e+02 5.086459387448275038e+01 3.497614327367578602e-01
4.999553993415744024e-01 5.126864058080129780e+02 8.675990960109585615e+01 4.597723079485111497e-01
5.760433254428445338e-01 6.072366137375677226e+02 1.356889598691727201e+02 5.697831831602644392e-01
6.521312515441146651e-01 7.091543548319523325e+02 1.996882933298074931e+02 6.797940583720177843e-01
7.282191776453847964e-01 8.194581689481327658e+02 2.806432384201963259e+02 7.814637189289012076e-01
8.043071037466549278e-01 9.390234355738584782e+02 3.701723190031216291e+02 7.204932429968566865e-01
8.803950298479250591e-01 1.067012303264434649e+03 4.582586431274657457e+02 6.595227670648121654e-01
9.564829559491951905e-01 1.202498381696729666e+03 5.432907449045771955e+02 5.985522911327676443e-01
1.032570882050465322e+00 1.344603265981546429e+03 6.250531606840952463e+02 5.539467630038854562e-01
1.108658808151735453e+00 1.492641426325620614e+03 7.046035287587392304e+02 5.218962654509941013e-01
1.184746734253005362e+00 1.646076928013394081e+03 7.821492459957509027e+02 4.898457678981028574e-01
1.260834660354275494e+00 1.804414870547816690e+03 8.571089926052811734e+02 4.577952703452115024e-01
1.336922586455545625e+00 1.967186866140550592e+03 9.289608096934630339e+02 4.257447727923201475e-01
1.413010512556815756e+00 2.133949774990266633e+03 9.972381774206074851e+02 3.936942752394287925e-01
1.489098438658085888e+00 2.304284508269324306e+03 1.061526321895439651e+03 3.616437776865374376e-01
1.565186364759356019e+00 2.477794892789434925e+03 1.121458735606577875e+03 3.295932801336460827e-01
1.641274290860626150e+00 2.654106592383526731e+03 1.176713897907047567e+03 2.975427825807547833e-01
1.717362216961896282e+00 2.832866081831542033e+03 1.227012183421406917e+03 2.654922850278634283e-01
1.793450143063166413e+00 3.013739669756319472e+03 1.272112947342526695e+03 2.334417874749720734e-01
1.869538069164436545e+00 3.196412567378696622e+03 1.311811777495791603e+03 2.013912899220807184e-01
1.945625995265706676e+00 3.380599811862092793e+03 1.346650846733650042e+03 1.770277661538826319e-01
2.021713921366977029e+00 3.566095684871165759e+03 1.379030758305022800e+03 1.721161230889274585e-01
2.097801847468246716e+00 3.752797327932998996e+03 1.410704341032253069e+03 1.672044800239723406e-01
