# density  energy_density  pressure   sound_speed_squared  [All in nuclear units]
2.720000000000000022e-14 2.529924618736292620e-11 1.061056609100270887e-19 3.766610435412189122e-08
1.269999999999999890e-13 1.181251617980081254e-10 4.870113551826584858e-18 6.497781477172163475e-08
6.929999999999999754e-13 6.445728594625782745e-10 1.018299070687946017e-16 3.033770597342807186e-07
6.295000000000000137e-12 5.855111460395753757e-09 5.487150723824490656e-15 1.763710043904196507e-06
1.581000000000000150e-11 1.470523320212576141e-08 2.904239460150760759e-14 3.559434472327477622e-06
3.971999999999999958e-11 3.694456170323160790e-08 1.439340266754906811e-13 6.772854871245677111e-06
9.975999999999999982e-11 9.278976412613005154e-08 6.812143616221268841e-13 1.246890511177539320e-05
2.505999999999999928e-10 2.330928829758143313e-07 3.107749196951638608e-12 2.212095130576091967e-05
6.294000000000000186e-10 5.854398883216247602e-07 1.363250409771533549e-11 3.761981047239428883e-05
1.581000000000000021e-09 1.470619631082054101e-06 5.726014178088476303e-11 6.095350986710739404e-05
3.971999999999999932e-09 3.694861084648016046e-06 2.210019573374265380e-10 8.628023653304385055e-05
5.000000000000000105e-09 4.651201787816927976e-06 3.071485916280120014e-10 9.387863480799757518e-05
9.975999999999999465e-09 9.280587964640925786e-06 8.385361004129998845e-10 1.356922228656245837e-04
1.989999999999999952e-08 1.851419242998081003e-05 2.287763168863418088e-09 1.782101978513718314e-04
3.972999999999999908e-08 3.696699295748789187e-05 6.061583099087538954e-09 2.308134738384234820e-04
7.925999999999999637e-08 7.375765469301719828e-05 1.575347858094044765e-08 2.960532096713864875e-04
1.580999999999999930e-07 1.471491184379128891e-04 3.910429618672550719e-08 3.402859755131850544e-04
1.991000000000000027e-07 1.853209783927820692e-04 5.252045687899177454e-08 3.626488188833278743e-04
3.155999999999999938e-07 2.938002528823880299e-04 9.730770378831954314e-08 4.630767356912104081e-04
5.000999999999999849e-07 4.656344063839075714e-04 1.837494945860225819e-07 5.430301232045120323e-04
6.295999999999999732e-07 5.862651417037388971e-04 2.503103884558263872e-07 5.605192962670089638e-04
9.666999999999999941e-07 9.003386739730535665e-04 4.324450868778576936e-07 5.993081670211623108e-04
1.531999999999999901e-06 1.427170885631398036e-03 7.780217275717420968e-07 7.125938556504039095e-04
2.506999999999999883e-06 2.336134972129507662e-03 1.471005394641589826e-06 8.121876172121876309e-04
3.974000000000000407e-06 3.704315759716615697e-03 2.695705763844323844e-06 9.780674166779417152e-04
4.830000000000000343e-06 4.502887798316278223e-03 3.503988717694660908e-06 1.046253037768318664e-03
6.080999999999999885e-06 5.670217999231269741e-03 4.731126407333307547e-06 1.056224360839501646e-03
7.930000000000000308e-06 7.396012414119570652e-03 6.599662989063778187e-06 1.109203753630785610e-03
9.982000000000000313e-06 9.311815711689977113e-03 8.879881089227186733e-06 1.271216815433141075e-03
1.256999999999999993e-05 1.172874412604260098e-02 1.207676739913533738e-05 1.374195438212825332e-03
1.521999999999999997e-05 1.420427250933824909e-02 1.547541302213394990e-05 1.371610497379100249e-03
1.991000000000000080e-05 1.858690797761085312e-02 2.160710455847765458e-05 1.426578142835871997e-03
2.506999999999999883e-05 2.341050104039446925e-02 2.908031724375689851e-05 1.672007475975408053e-03
2.790999999999999875e-05 2.606604784714952258e-02 3.357009132255487721e-05 1.709425557744154774e-03
3.806999999999999973e-05 3.556967988784798945e-02 4.986781576435106434e-05 1.720407281314112165e-03
5.063000000000000145e-05 4.732434580343149871e-02 7.073400252905581275e-05 1.829889149838781265e-03
6.592000000000000583e-05 6.164112392498975052e-02 9.765037643900635188e-05 1.930242980462695823e-03
8.433000000000000066e-05 7.888776783401378612e-02 1.317235490470395893e-04 2.021055815200022837e-03
1.062000000000000064e-04 9.938561165478684845e-02 1.740088341640037047e-04 2.104789529260958983e-03
1.321000000000000126e-04 1.236720406455826121e-01 2.260189757651373944e-04 2.178291718403657477e-03
1.623999999999999901e-04 1.520974545104751274e-01 2.888169908545388338e-04 2.240170365918073281e-03
1.689999999999999879e-04 1.582907717069566844e-01 3.027354772999506964e-04 2.254509350360745651e-03
1.758999999999999930e-04 1.647661861691531171e-01 3.173785841705756782e-04 2.268169273277113179e-03
1.830000000000000029e-04 1.714298948183871907e-01 3.325196584577469103e-04 2.276170334580628063e-03
1.901999999999999882e-04 1.781880600978280049e-01 3.479577791899843742e-04 2.292561569242367037e-03
1.977000000000000079e-04 1.852284385240466902e-01 3.641242634600037713e-04 2.299943765467868384e-03
2.054000000000000053e-04 1.924572004474696396e-01 3.808304060475003897e-04 2.322187632288155723e-03
2.079000000000000119e-04 1.948043378760714872e-01 3.864137987380476553e-04 2.435429768083530178e-03
2.081999999999999921e-04 1.950859988578999005e-01 3.870314100985603909e-04 1.950065624557156818e-03
2.090999999999999868e-04 1.959309855029948977e-01 3.881261957135444685e-04 6.411875526909013856e-04
2.159999999999999919e-04 2.024093317906446865e-01 3.940874488768042125e-04 1.199166870571831411e-03
2.231000000000000019e-04 2.090756740932291913e-01 4.013938420547467825e-04 9.928616047829054436e-04
2.311000000000000066e-04 2.165873044433437034e-01 4.085241694843774404e-04 9.056166966301716637e-04
2.401000000000000085e-04 2.250381721984245909e-01 4.159700687886608468e-04 8.565463878902855599e-04
2.500000000000000052e-04 2.343344406330727658e-01 4.237602369176299592e-04 8.194318812157330018e-04
2.642999999999999733e-04 2.477629128650125634e-01 4.345596643180389446e-04 7.890063723638815647e-04
3.052999999999999941e-04 2.862671839140227270e-01 4.644058706720978241e-04 7.612775562167708662e-04
3.533000000000000224e-04 3.313503829113090826e-01 4.987577676308450197e-04 7.626578558207241024e-04
4.075999999999999871e-04 3.823564017794535141e-01 5.381334366106255759e-04 7.813048116943254948e-04
4.679999999999999915e-04 4.390986251953180042e-01 5.832692638200615834e-04 8.096035963157804938e-04
5.341000000000000261e-04 5.012024644415256081e-01 6.346556894078133086e-04 8.452514814113673558e-04
6.059000000000000366e-04 5.686690698184251325e-01 6.930641302632923034e-04 8.862253587289389486e-04
7.661000000000000275e-04 7.192254882508629654e-01 8.328184776562496576e-04 9.702780530519144065e-04
1.262000000000000101e-03 1.185459127778160093e+00 1.338484980802662205e-03 1.198863597978450275e-03
1.894999999999999983e-03 1.780909071169781921e+00 2.123481960401060308e-03 1.437771491635827115e-03
2.673000000000000029e-03 2.513147344746868850e+00 3.261860252001994032e-03 1.671524566936786766e-03
3.605999999999999830e-03 3.391736073717691369e+00 4.828136641022434151e-03 1.893900408978071038e-03
4.709999999999999777e-03 4.431905410739045870e+00 6.903512974832482635e-03 2.096551352830673849e-03
7.496000000000000059e-03 7.058993649504918366e+00 1.289742191321638018e-02 2.466596387205546859e-03
1.119999999999999989e-02 1.055540362104863661e+01 2.212077014004794340e-02 2.809304433764861584e-03
1.600000000000000033e-02 1.509117352747679952e+01 3.559566804390756900e-02 3.132325055719984222e-03
2.206999999999999934e-02 2.083310616724802244e+01 5.457322122755020599e-02 3.477840948757840792e-03
2.947999999999999926e-02 2.785007348564149154e+01 8.049103664263126956e-02 3.909302116317729670e-03
4.268000000000000266e-02 4.036707211535221518e+01 1.353887601042819133e-01 4.862066536253286525e-03
6.219999999999999835e-02 5.891246509830522626e+01 2.419691225623893105e-01 6.630786177272363080e-03
7.316999999999999893e-02 6.935151695866235855e+01 3.161896974764099033e-01 7.588671314871411888e-03
7.595999999999999974e-02 7.200836722020332559e+01 3.371250777904805096e-01 8.170805199905812125e-03
7.685877551020407761e-02 7.286441681032360407e+01 3.442078757410743095e-01 8.376820969222049940e-03
7.775755102040816935e-02 7.372055026910453535e+01 3.514695364903787089e-01 8.587022446515182178e-03
7.865632653061224722e-02 7.457676871524262197e+01 3.589136458002115670e-01 8.801309778122521493e-03
7.955510204081632508e-02 7.543307328236713261e+01 3.665437058269778725e-01 9.019583110381392682e-03
8.045387755102040295e-02 7.628946511758887539e+01 3.743631351144929842e-01 9.241742589629111868e-03
8.135265306122449469e-02 7.714594538011451164e+01 3.823752685852431776e-01 9.467688362203000377e-03
8.225142857142857256e-02 7.800251523992136526e+01 3.905833575300249327e-01 9.697320574440369129e-03
8.315020408163265042e-02 7.885917587649062455e+01 3.989905695959145016e-01 9.930539372678539450e-03
8.404897959183672829e-02 7.971592847759460199e+01 4.075999887725206827e-01 1.016724490325483440e-02
8.494775510204082003e-02 8.057277423813619066e+01 4.164146153764836655e-01 1.040733731250657532e-02
8.584653061224489790e-02 8.142971435903699273e+01 4.254373660341849162e-01 1.065071674677106443e-02
8.674530612244897576e-02 8.228675004617187483e+01 4.346710736626414051e-01 1.089728335238563522e-02
8.764408163265305363e-02 8.314388250934756286e+01 4.441184874485570866e-01 1.114693727568760034e-02
8.854285714285714537e-02 8.400111296132303096e+01 4.537822728255138660e-01 1.139957866301428285e-02
8.944163265306122323e-02 8.485844261686888501e+01 4.636650114492847363e-01 1.165510766070299714e-02
9.034040816326530110e-02 8.571587269186488811e+01 4.737692011712585360e-01 1.191342441509105933e-02
9.123918367346939284e-02 8.657340440243298474e+01 4.840972560099653932e-01 1.217442907251579075e-02
9.213795918367347071e-02 8.743103896410397624e+01 4.946515061206982478e-01 1.243802177931451272e-02
9.303673469387754857e-02 8.828877759101662548e+01 5.054341977632296201e-01 1.270410268182453617e-02
9.393551020408162644e-02 8.914662149514744272e+01 5.164474932676210717e-01 1.297257192638318762e-02
9.483428571428570431e-02 9.000457188556910637e+01 5.276934709981312421e-01 1.324332965932777627e-02
9.573306122448979605e-02 9.086262996773758971e+01 5.391741253152266822e-01 1.351627602699563731e-02
9.663183673469387391e-02 9.172079694280476758e+01 5.508913665357032530e-01 1.379131117572407125e-02
9.753061224489795178e-02 9.257907400695650324e+01 5.628470208909314154e-01 1.406833525185040117e-02
9.842938775510204352e-02 9.343746235077536255e+01 5.750428304832333470e-01 1.434724840171195705e-02
9.932816326530612139e-02 9.429596315862498557e+01 5.874804532404095392e-01 1.462795077164603941e-02
1.002269387755101993e-01 9.515457760805749388e+01 6.001614628684316388e-01 1.491034250798997651e-02
1.011257142857142910e-01 9.601330686924117686e+01 6.130873488023169671e-01 1.519432375708109316e-02
1.020244897959183689e-01 9.687215210440795943e+01 6.262595161552064749e-01 1.547979466525669333e-02
1.029232653061224467e-01 9.773111446732011132e+01 6.396792856656685622e-01 1.576665537885409835e-02
1.038220408163265246e-01 9.859019510275514619e+01 6.533478936432491890e-01 1.605480604421063648e-02
1.047208163265306025e-01 9.944939514600800123e+01 6.672664919122943683e-01 1.634414680766362038e-02
1.056195918367346942e-01 1.003087157224099144e+02 6.814361477540706868e-01 1.663457781555037138e-02
1.065183673469387721e-01 1.011681579468625642e+02 6.958578438472098338e-01 1.692599921420819692e-02
1.074171428571428499e-01 1.020277229233888505e+02 7.105324782065078892e-01 1.721831114997442874e-02
1.083159183673469417e-01 1.028874117446964362e+02 7.254608641201056862e-01 1.751141376918638470e-02
1.092146938775510195e-01 1.037472254917566090e+02 7.406437300850817751e-01 1.780520721818137225e-02
1.101134693877550974e-01 1.046071652333956195e+02 7.560817197414927415e-01 1.809959164329671272e-02
1.110122448979591891e-01 1.054672320258996479e+02 7.717753918048879669e-01 1.839446719086974130e-02
1.119110204081632531e-01 1.063274269126309122e+02 7.877252199973356905e-01 1.868973400723775158e-02
1.128097959183673449e-01 1.071877509236567505e+02 8.039315929769974556e-01 1.898529223873807875e-02
1.137085714285714227e-01 1.080482050753886654e+02 8.203948142662771392e-01 1.928104203170803374e-02
1.146073469387755006e-01 1.089087903702337172e+02 8.371151021785933066e-01 1.957688353248493440e-02
1.155061224489795924e-01 1.097695077962547998e+02 8.540925897438010894e-01 1.987271688740611247e-02
1.164048979591836702e-01 1.106303583268421562e+02 8.713273246323056664e-01 2.016844224280887193e-02
1.173036734693877481e-01 1.114913429203932509e+02 8.888192690779084248e-01 2.046395974503052717e-02
1.182024489795918398e-01 1.123524625200028879e+02 9.065682997994192194e-01 2.075916954040842033e-02
1.191012244897959177e-01 1.132137180531615144e+02 9.245742079210775843e-01 2.105397177527983804e-02
1.199999999999999956e-01 1.140751104314626616e+02 9.428366988918256419e-01 2.134826659598212592e-02
1.222144306632515776e-01 1.161980269008152931e+02 9.889317392486732805e-01 2.207775778415022733e-02
1.244288613265031596e-01 1.183217930089872993e+02 1.036625646977297421e+00 2.283657641906967212e-02
1.266432919897547416e-01 1.204464226615284730e+02 1.085982978840690061e+00 2.362534304413687475e-02
1.288577226530063236e-01 1.225719304190634915e+02 1.137069729569384569e+00 2.444467272038901295e-02
1.310721533162579056e-01 1.246983314881874918e+02 1.189953327205860667e+00 2.529517536957909610e-02
1.332865839795094876e-01 1.268256417129068012e+02 1.244702629397685945e+00 2.617745609493698014e-02
1.355010146427610696e-01 1.289538775665941159e+02 1.301387920599186288e+00 2.709211548046154550e-02
1.377154453060126515e-01 1.310830561444307136e+02 1.360080910143078858e+00 2.803974986952938175e-02
1.399298759692642335e-01 1.332131951563108885e+02 1.420854731145033023e+00 2.902095162355066219e-02
1.421443066325158155e-01 1.353443129201845920e+02 1.483783940205554597e+00 3.003630936135590415e-02
1.443587372957673975e-01 1.374764283558159548e+02 1.548944517874930593e+00 3.108640817995083142e-02
1.465731679590189795e-01 1.396095609789380489e+02 1.616413869848226437e+00 3.217182985723606586e-02
1.487875986222705615e-01 1.417437308957833011e+02 1.686270828858503767e+00 3.329315303725038921e-02
1.510020292855221435e-01 1.438789587979736098e+02 1.758595657237530752e+00 3.445095339846166588e-02
1.532164599487737255e-01 1.460152659577520069e+02 1.833470050114295091e+00 3.564580380559760620e-02
1.554308906120253075e-01 1.481526742235407710e+02 1.910977139222596710e+00 3.687827444547805283e-02
1.576453212752768895e-01 1.502912060158104737e+02 1.991201497289914357e+00 3.814893294728494144e-02
1.598597519385284715e-01 1.524308843232482502e+02 2.074229142980596574e+00 3.945834448767865377e-02
1.620741826017800535e-01 1.545717326992081269e+02 2.160147546367227722e+00 4.080707188114829354e-02
1.642886132650316355e-01 1.567137752584361863e+02 2.249045634904782265e+00 4.219567565596051006e-02
1.665030439282832175e-01 1.588570366740534041e+02 2.341013799882878832e+00 4.362471411605263472e-02
1.687174745915347995e-01 1.610015421747902451e+02 2.436143903332124161e+00 4.509474338919719494e-02
1.709319052547863815e-01 1.631473175424580973e+02 2.534529285361146300e+00 4.660631746174874468e-02
1.731463359180379635e-01 1.652943891096505524e+02 2.636264771901517978e+00 4.815998820026795579e-02
1.753607665812895733e-01 1.674427837576627098e+02 2.741446682838304394e+00 4.975630536030477974e-02
1.775751972445411275e-01 1.695925289146220791e+02 2.850172840504489713e+00 5.139581658260964497e-02
1.797896279077927373e-01 1.717436525538190892e+02 2.962542578518049474e+00 5.307906737702944300e-02
1.820040585710442915e-01 1.738961831922316890e+02 3.078656750940800713e+00 5.480660109433580646e-02
1.842184892342959013e-01 1.760501498892354562e+02 3.198617741738728704e+00 5.657895888622352376e-02
1.864329198975474555e-01 1.782055822454888698e+02 3.322529474523710391e+00 5.839667965370781699e-02
1.886473505607990653e-01 1.803625104019921537e+02 3.450497422557112337e+00 6.026029998414398486e-02
1.908617812240506195e-01 1.825209650393060201e+02 3.582628618995902681e+00 6.217035407708382949e-02
1.930762118873022293e-01 1.846809773769291496e+02 3.719031667362425964e+00 6.412737365918072530e-02
1.952906425505537835e-01 1.868425791728235481e+02 3.859816752219101144e+00 6.613188788833845866e-02
1.975050732138053933e-01 1.890058027230857363e+02 4.005095650029824483e+00 6.818442324736241622e-02
1.997195038770569475e-01 1.911706808617525439e+02 4.154981740189843009e+00 7.028550342717347632e-02
2.019339345403085573e-01 1.933372469607419362e+02 4.309590016206366059e+00 7.243564919996360596e-02
2.041483652035601115e-01 1.955055349299167631e+02 4.469037097012244608e+00 7.463537828235165816e-02
2.063627958668117213e-01 1.976755792172710926e+02 4.633441238395420214e+00 7.688520518878816379e-02
2.085772265300632755e-01 1.998474148092310259e+02 4.802922344526835197e+00 7.918564107539187436e-02
2.107916571933148853e-01 2.020210772310650498e+02 4.977601979569951318e+00 8.153719357441223392e-02
2.130060878565664395e-01 2.041966025474004311e+02 5.157603379354920747e+00 8.394036661951088940e-02
2.152205185198180493e-01 2.063740273628393709e+02 5.343051463100904286e+00 8.639566026205840188e-02
2.174349491830696035e-01 2.085533888226694899e+02 5.534072845169900390e+00 8.890357047864086426e-02
2.196493798463212133e-01 2.107347246136674812e+02 5.730795846835879281e+00 9.146458896997725074e-02
2.218638105095727675e-01 2.129180729649870329e+02 5.933350508052869898e+00 9.407920295144550638e-02
2.240782411728243773e-01 2.151034726491291167e+02 6.141868599206055990e+00 9.674789493542446106e-02
2.262926718360759593e-01 2.172909629829901235e+02 6.356483632829765362e+00 9.947114250565504412e-02
2.285071024993275413e-01 2.194805838289836686e+02 6.577330875276638622e+00 1.022494180838334765e-01
3.054763453054636924e-01 2.975023469959011777e+02 1.990557906395756760e+01 2.359568908171660317e-01
3.824455881115998990e-01 3.802010965680634058e+02 4.516390339458398273e+01 3.696643635504986980e-01
4.594148309177360501e-01 4.692247943411135225e+02 8.432842675919101794e+01 5.033718362838313087e-01
5.363840737238722012e-01 5.660360963124975342e+02 1.399397001648358412e+02 6.370793090171638084e-01
6.133533165300083523e-01 6.718439881786628121e+02 2.045384008316861184e+02 5.879256510043366912e-01
6.903225593361446144e-01 7.856204688185932810e+02 2.641275715553456962e+02 4.658091492541158729e-01
7.672918021422807655e-01 9.054168727464943913e+02 3.123805988684735553e+02 3.436926475038951656e-01
8.442610449484169166e-01 1.029378533346952281e+03 3.473169662370212905e+02 2.221892933158787220e-01
9.212302877545530677e-01 1.156170466312079270e+03 3.765557802693376175e+02 2.388774083588067754e-01
9.981995305606892188e-01 1.285518798197280148e+03 4.085428335168514877e+02 2.555655234017348287e-01
1.075168773366825370e+00 1.417441698652658715e+03 4.433682569519585286e+02 2.722536384446628821e-01
1.152138016172961521e+00 1.552007980883926621e+03 4.830511969419745242e+02 3.170095305724956458e-01
1.229107258979097672e+00 1.689515529747505525e+03 5.329994626364402848e+02 4.080949485289441236e-01
1.306076501785233823e+00 1.830565216279134802e+03 5.971065266303126009e+02 4.991803664853926570e-01
1.383045744591369974e+00 1.975810277789156089e+03 6.763760189079941938e+02 5.902657844418410793e-01
1.460014987397506125e+00 2.125891379312542085e+03 7.719826372408751922e+02 6.813512023982896126e-01
1.536984230203642277e+00 2.281447715719561984e+03 8.852756488747444337e+02 7.724366203547381460e-01
1.613953473009778428e+00 2.443126138049563451e+03 1.017785848435967864e+03 8.635220383111865683e-01
1.690922715815914579e+00 2.611564857868496347e+03 1.161512369889182537e+03 8.438478116225336390e-01
1.767891958622050730e+00 2.786597622525565839e+03 1.307066575784916495e+03 8.201900590420705406e-01
1.844861201428186881e+00 2.967992730566315004e+03 1.453626313425776971e+03 7.965323064616075532e-01
1.921830444234323032e+00 3.155516385819148582e+03 1.600707126649993825e+03 7.728745538811445659e-01
1.998799687040459183e+00 3.348934443073402690e+03 1.747840858981637894e+03 7.492168013006814675e-01
2.075768929846595778e+00 3.548002572434903414e+03 1.892632594696751539e+03 7.065511200633706190e-01
