# density  energy_density  pressure   sound_speed_squared  [All in nuclear units]
2.720000000000000022e-14 2.529924618736292620e-11 1.061056609100270887e-19 3.766610435412189122e-08
1.269999999999999890e-13 1.181251617980081254e-10 4.870113551826584858e-18 6.497781477172163475e-08
6.929999999999999754e-13 6.445728594625782745e-10 1.018299070687946017e-16 3.033770597342807186e-07
6.295000000000000137e-12 5.855111460395753757e-09 5.487150723824490656e-15 1.763710043904196507e-06
1.581000000000000150e-11 1.470523320212576141e-08 2.904239460150760759e-14 3.559434472327477622e-06
3.971999999999999958e-11 3.694456170323160790e-08 1.439340266754906811e-13 6.772854871245677111e-06
9.975999999999999982e-11 9.278976412613005154e-08 6.812143616221268841e-13 1.246890511177539320e-05
2.505999999999999928e-10 2.330928829758143313e-07 3.107749196951638608e-12 2.212095130576091967e-05
6.294000000000000186e-10 5.854398883216247602e-07 1.363250409771533549e-11 3.761981047239428883e-05
1.581000000000000021e-09 1.470619631082054101e-06 5.726014178088476303e-11 6.095350986710739404e-05
3.971999999999999932e-09 3.694861084648016046e-06 2.210019573374265380e-10 8.628023653304385055e-05
5.000000000000000105e-09 4.651201787816927976e-06 3.071485916280120014e-10 9.387863480799757518e-05
9.975999999999999465e-09 9.280587964640925786e-06 8.385361004129998845e-10 1.356922228656245837e-04
1.989999999999999952e-08 1.851419242998081003e-05 2.287763168863418088e-09 1.782101978513718314e-04
3.972999999999999908e-08 3.696699295748789187e-05 6.061583099087538954e-09 2.308134738384234820e-04
7.925999999999999637e-08 7.375765469301719828e-05 1.575347858094044765e-08 2.960532096713864875e-04
1.580999999999999930e-07 1.471491184379128891e-04 3.910429618672550719e-08 3.402859755131850544e-04
1.991000000000000027e-07 1.853209783927820692e-04 5.252045687899177454e-08 3.626488188833278743e-04
3.155999999999999938e-07 2.938002528823880299e-04 9.730770378831954314e-08 4.630767356912104081e-04
5.000999999999999849e-07 4.656344063839075714e-04 1.837494945860225819e-07 5.430301232045120323e-04
6.295999999999999732e-07 5.862651417037388971e-04 2.503103884558263872e-07 5.605192962670089638e-04
9.666999999999999941e-07 9.003386739730535665e-04 4.324450868778576936e-07 5.993081670211623108e-04
1.531999999999999901e-06 1.427170885631398036e-03 7.780217275717420968e-07 7.125938556504039095e-04
2.506999999999999883e-06 2.336134972129507662e-03 1.471005394641589826e-06 8.121876172121876309e-04
3.974000000000000407e-06 3.704315759716615697e-03 2.695705763844323844e-06 9.780674166779417152e-04
4.830000000000000343e-06 4.502887798316278223e-03 3.503988717694660908e-06 1.046253037768318664e-03
6.080999999999999885e-06 5.670217999231269741e-03 4.731126407333307547e-06 1.056224360839501646e-03
7.930000000000000308e-06 7.396012414119570652e-03 6.599662989063778187e-06 1.109203753630785610e-03
9.982000000000000313e-06 9.311815711689977113e-03 8.879881089227186733e-06 1.271216815433141075e-03
1.256999999999999993e-05 1.172874412604260098e-02 1.207676739913533738e-05 1.374195438212825332e-03
1.521999999999999997e-05 1.420427250933824909e-02 1.547541302213394990e-05 1.371610497379100249e-03
1.991000000000000080e-05 1.858690797761085312e-02 2.160710455847765458e-05 1.426578142835871997e-03
2.506999999999999883e-05 2.341050104039446925e-02 2.908031724375689851e-05 1.672007475975408053e-03
2.790999999999999875e-05 2.606604784714952258e-02 3.357009132255487721e-05 1.709425557744154774e-03
3.806999999999999973e-05 3.556967988784798945e-02 4.986781576435106434e-05 1.720407281314112165e-03
5.063000000000000145e-05 4.732434580343149871e-02 7.073400252905581275e-05 1.829889149838781265e-03
6.592000000000000583e-05 6.164112392498975052e-02 9.765037643900635188e-05 1.930242980462695823e-03
8.433000000000000066e-05 7.888776783401378612e-02 1.317235490470395893e-04 2.021055815200022837e-03
1.062000000000000064e-04 9.938561165478684845e-02 1.740088341640037047e-04 2.104789529260958983e-03
1.321000000000000126e-04 1.236720406455826121e-01 2.260189757651373944e-04 2.178291718403657477e-03
1.623999999999999901e-04 1.520974545104751274e-01 2.888169908545388338e-04 2.240170365918073281e-03
1.689999999999999879e-04 1.582907717069566844e-01 3.027354772999506964e-04 2.254509350360745651e-03
1.758999999999999930e-04 1.647661861691531171e-01 3.173785841705756782e-04 2.268169273277113179e-03
1.830000000000000029e-04 1.714298948183871907e-01 3.325196584577469103e-04 2.276170334580628063e-03
1.901999999999999882e-04 1.781880600978280049e-01 3.479577791899843742e-04 2.292561569242367037e-03
1.977000000000000079e-04 1.852284385240466902e-01 3.641242634600037713e-04 2.299943765467868384e-03
2.054000000000000053e-04 1.924572004474696396e-01 3.808304060475003897e-04 2.322187632288155723e-03
2.079000000000000119e-04 1.948043378760714872e-01 3.864137987380476553e-04 2.435429768083530178e-03
2.081999999999999921e-04 1.950859988578999005e-01 3.870314100985603909e-04 1.950065624557156818e-03
2.090999999999999868e-04 1.959309855029948977e-01 3.881261957135444685e-04 6.411875526909013856e-04
2.159999999999999919e-04 2.024093317906446865e-01 3.940874488768042125e-04 1.199166870571831411e-03
2.231000000000000019e-04 2.090756740932291913e-01 4.013938420547467825e-04 9.928616047829054436e-04
2.311000000000000066e-04 2.165873044433437034e-01 4.085241694843774404e-04 9.056166966301716637e-04
2.401000000000000085e-04 2.250381721984245909e-01 4.159700687886608468e-04 8.565463878902855599e-04
2.500000000000000052e-04 2.343344406330727658e-01 4.237602369176299592e-04 8.194318812157330018e-04
2.642999999999999733e-04 2.477629128650125634e-01 4.345596643180389446e-04 7.890063723638815647e-04
3.052999999999999941e-04 2.862671839140227270e-01 4.644058706720978241e-04 7.612775562167708662e-04
3.533000000000000224e-04 3.313503829113090826e-01 4.987577676308450197e-04 7.626578558207241024e-04
4.075999999999999871e-04 3.823564017794535141e-01 5.381334366106255759e-04 7.813048116943254948e-04
4.679999999999999915e-04 4.390986251953180042e-01 5.832692638200615834e-04 8.096035963157804938e-04
5.341000000000000261e-04 5.012024644415256081e-01 6.346556894078133086e-04 8.452514814113673558e-04
6.059000000000000366e-04 5.686690698184251325e-01 6.930641302632923034e-04 8.862253587289389486e-04
7.661000000000000275e-04 7.192254882508629654e-01 8.328184776562496576e-04 9.702780530519144065e-04
1.262000000000000101e-03 1.185459127778160093e+00 1.338484980802662205e-03 1.198863597978450275e-03
1.894999999999999983e-03 1.780909071169781921e+00 2.123481960401060308e-03 1.437771491635827115e-03
2.673000000000000029e-03 2.513147344746868850e+00 3.261860252001994032e-03 1.671524566936786766e-03
3.605999999999999830e-03 3.391736073717691369e+00 4.828136641022434151e-03 1.893900408978071038e-03
4.709999999999999777e-03 4.431905410739045870e+00 6.903512974832482635e-03 2.096551352830673849e-03
7.496000000000000059e-03 7.058993649504918366e+00 1.289742191321638018e-02 2.466596387205546859e-03
1.119999999999999989e-02 1.055540362104863661e+01 2.212077014004794340e-02 2.809304433764861584e-03
1.600000000000000033e-02 1.509117352747679952e+01 3.559566804390756900e-02 3.132325055719984222e-03
2.206999999999999934e-02 2.083310616724802244e+01 5.457322122755020599e-02 3.477840948757840792e-03
2.947999999999999926e-02 2.785007348564149154e+01 8.049103664263126956e-02 3.909302116317729670e-03
4.268000000000000266e-02 4.036707211535221518e+01 1.353887601042819133e-01 4.862066536253286525e-03
6.219999999999999835e-02 5.891246509830522626e+01 2.419691225623893105e-01 6.630786177272363080e-03
7.316999999999999893e-02 6.935151695866235855e+01 3.161896974764099033e-01 7.588671314871411888e-03
7.595999999999999974e-02 7.200836722020332559e+01 3.371250777904805096e-01 8.170805199905810390e-03
7.685877551020407761e-02 7.286441674674756541e+01 3.441969958300339361e-01 8.351404571860787662e-03
7.775755102040816935e-02 7.372054984721388848e+01 3.514189516169394234e-01 8.519693874913907006e-03
7.865632653061224722e-02 7.457676723110259331e+01 3.587807371799633382e-01 8.676366508493051077e-03
7.955510204081632508e-02 7.543306947840414978e+01 3.662727344970516663e-01 8.822115872026132025e-03
8.045387755102040295e-02 7.628945705065552829e+01 3.738859157072628170e-01 8.957635364941042913e-03
8.135265306122449469e-02 7.714593030150582820e+01 3.816118433432426071e-01 9.083618386665690686e-03
8.225142857142857256e-02 7.800248948681642958e+01 3.894426705808095024e-01 9.200758336627966674e-03
8.315020408163265042e-02 7.885913477432349339e+01 3.973711415025820703e-01 9.309748614255772617e-03
8.404897959183672829e-02 7.971586625288504990e+01 4.053905913729127231e-01 9.411282618977008518e-03
8.494775510204082003e-02 8.057268394133531331e+01 4.134949469217075180e-01 9.506053750219574383e-03
8.584653061224489790e-02 8.142958779696772353e+01 4.216787266350008334e-01 9.594755407411368481e-03
8.674530612244897576e-02 8.228657772366547363e+01 4.299370410504270157e-01 9.678080989980292551e-03
8.764408163265305363e-02 8.314365357969812464e+01 4.382655930559816726e-01 9.756723897354243127e-03
8.854285714285714537e-02 8.400081518520146062e+01 4.466606781907047075e-01 9.831377528961121950e-03
8.944163265306122323e-02 8.485806232935689764e+01 4.551191849461367900e-01 9.902735284228823820e-03
9.034040816326530110e-02 8.571539477728484258e+01 4.636385950676098489e-01 9.971490562585255679e-03
9.123918367346939284e-02 8.657281227666690882e+01 4.722169838546229625e-01 1.003833676345831233e-02
9.213795918367347071e-02 8.743031456411056013e+01 4.808530204597393776e-01 1.010396728627589030e-02
9.303673469387754857e-02 8.828790137126736681e+01 4.895459681856114686e-01 1.016907553046589308e-02
9.393551020408162644e-02 8.914557243071860171e+01 4.982956847798964972e-01 1.023435489545622412e-02
9.483428571428570431e-02 9.000332748163766894e+01 5.071026227279811227e-01 1.030049878067477304e-02
9.573306122448979605e-02 9.086116627524101830e+01 5.159678295435704554e-01 1.036820058554944850e-02
9.663183673469387391e-02 9.171908858003716603e+01 5.248929480573312212e-01 1.043815370950814531e-02
9.753061224489795178e-02 9.257709418688212111e+01 5.338802167039061741e-01 1.051105155197875826e-02
9.842938775510204352e-02 9.343518291385279895e+01 5.429324698077295785e-01 1.058758751238919778e-02
9.932816326530612139e-02 9.429335461094335358e+01 5.520531378681889922e-01 1.066845499016735518e-02
1.002269387755101993e-01 9.515160916459477392e+01 5.612462478447836078e-01 1.075434738474113222e-02
1.011257142857142910e-01 9.600994650206483527e+01 5.705164234430233350e-01 1.084595809553842889e-02
1.020244897959183689e-01 9.686836659564492891e+01 5.798688854019116157e-01 1.094398052198714347e-02
1.029232653061224467e-01 9.772686946673046293e+01 5.893094517839422286e-01 1.104910806351517422e-02
1.038220408163265246e-01 9.858545518975235211e+01 5.988445382686192753e-01 1.116203411955042288e-02
1.047208163265306025e-01 9.944412389597428614e+01 6.084811584505954718e-01 1.128345208952078946e-02
1.056195918367346942e-01 1.003028757771626971e+02 6.182269241435932594e-01 1.141405537285417222e-02
1.065183673469387721e-01 1.011617110891336893e+02 6.280900456913460772e-01 1.155453736897846945e-02
1.074171428571428499e-01 1.020206301551840653e+02 6.380793322868664186e-01 1.170559147732157940e-02
1.083159183673469417e-01 1.028796333694089213e+02 6.482041923014060236e-01 1.186791109731140555e-02
1.092146938775510195e-01 1.037387211999126890e+02 6.584746336245388409e-01 1.204218962837584617e-02
1.101134693877550974e-01 1.045978941919173764e+02 6.689012640168547907e-01 1.222912046994279779e-02
1.110122448979591891e-01 1.054571529707715598e+02 6.794952914768025432e-01 1.242939702144016563e-02
1.119110204081632531e-01 1.063164982448655564e+02 6.902685246232761473e-01 1.264371268229583928e-02
1.128097959183673449e-01 1.071759308084560303e+02 7.012333730955917499e-01 1.287276085193773262e-02
1.137085714285714227e-01 1.080354515444035428e+02 7.124028479725378338e-01 1.311723492979373004e-02
1.146073469387755006e-01 1.088950614268270556e+02 7.237905622122436933e-01 1.337782831529174023e-02
1.155061224489795924e-01 1.097547615236789085e+02 7.354107311146377279e-01 1.365523440785966144e-02
1.164048979591836702e-01 1.106145529992430312e+02 7.472781728083195407e-01 1.395014660692538849e-02
1.173036734693877481e-01 1.114744371165599262e+02 7.594083087637063523e-01 1.426325831191682311e-02
1.182024489795918398e-01 1.123344152397814781e+02 7.718171643343489929e-01 1.459526292226187398e-02
1.191012244897959177e-01 1.131944888364582198e+02 7.845213693283534795e-01 1.494685383738842376e-02
1.199999999999999956e-01 1.140546594797619662e+02 7.975381586118786004e-01 1.531872445672438285e-02
1.217097130535746280e-01 1.156912107254659077e+02 8.232264638511630483e-01 1.607441681543877662e-02
1.234194261071492604e-01 1.173281317017993644e+02 8.501834642911514361e-01 1.686172706980159156e-02
1.251291391607238790e-01 1.189654352277858465e+02 8.784621670907057922e-01 1.768120155782696226e-02
1.268388522142985253e-01 1.206031345029900592e+02 9.081165459354830771e-01 1.853338342918844223e-02
1.285485652678731439e-01 1.222412431051522219e+02 9.392015403901889936e-01 1.941881259017567279e-02
1.302582783214477902e-01 1.238797749879400385e+02 9.717730553400770743e-01 2.033802564517842373e-02
1.319679913750224087e-01 1.255187444788121809e+02 1.005887960518720314e+00 2.129155583483194336e-02
1.336777044285970550e-01 1.271581662769867052e+02 1.041604090119261139e+00 2.227993297095162695e-02
1.353874174821716736e-01 1.287980554515085885e+02 1.078980242486451413e+00 2.330368336837523521e-02
1.370971305357463199e-01 1.304384274394124645e+02 1.118076179886954291e+00 2.436332977383452031e-02
1.388068435893209385e-01 1.320792980439733810e+02 1.158952628355468528e+00 2.545939129196731279e-02
1.405165566428955848e-01 1.337206834330437175e+02 1.201671277614385192e+00 2.659238330858164009e-02
1.422262696964702033e-01 1.353626001374688030e+02 1.246294781064749335e+00 2.776281741127866604e-02
1.439359827500448497e-01 1.370050650495807361e+02 1.292886755846444746e+00 2.897120130753969014e-02
1.456456958036194682e-01 1.386480954217635997e+02 1.341511782965563837e+00 3.021803874037855622e-02
1.473554088571941145e-01 1.402917088650886797e+02 1.392235407487061316e+00 3.150382940165905726e-02
1.490651219107687331e-01 1.419359233480153364e+02 1.445124138790818691e+00 3.282906884317651069e-02
1.507748349643433794e-01 1.435807571951543764e+02 1.500245450889379217e+00 3.419424838559816798e-02
1.524845480179179980e-01 1.452262290860927010e+02 1.557667782805624457e+00 3.559985502535772950e-02
1.541942610714926443e-01 1.468723580542736613e+02 1.617460539008791942e+00 3.704637133959767792e-02
1.559039741250672628e-01 1.485191634859331771e+02 1.679694089907233900e+00 3.853427538925043722e-02
1.576136871786419091e-01 1.501666651190884636e+02 1.744439772396440658e+00 4.006404062035097413e-02
1.593234002322165277e-01 1.518148830425753602e+02 1.811769890460839472e+00 4.163613576366967384e-02
1.610331132857911740e-01 1.534638376951363909e+02 1.881757715828002109e+00 4.325102473275647258e-02
1.627428263393657926e-01 1.551135498645513735e+02 1.954477488673872720e+00 4.490916652048386470e-02
1.644525393929404389e-01 1.567640406868155196e+02 2.030004418377742592e+00 4.661101509417871214e-02
1.661622524465150574e-01 1.584153316453572984e+02 2.108414684325671917e+00 4.835701928942987005e-02
1.678719655000897037e-01 1.600674445702989601e+02 2.189785436761172654e+00 5.014762270266024530e-02
1.695816785536643223e-01 1.617204016377543212e+02 2.274194797681924118e+00 5.198326358255018348e-02
1.712913916072389686e-01 1.633742253691654298e+02 2.361721861781414411e+00 5.386437472040082192e-02
1.730011046608135872e-01 1.650289386306745598e+02 2.452446697434347733e+00 5.579138333952332607e-02
1.747108177143882335e-01 1.666845646325317318e+02 2.546450347724772634e+00 5.776471098374310470e-02
1.764205307679628520e-01 1.683411269285350613e+02 2.643814831515834296e+00 5.978477340510453958e-02
1.781302438215374984e-01 1.699986494155035643e+02 2.744623144560163652e+00 6.185198045086568591e-02
1.798399568751121169e-01 1.716571563327809713e+02 2.848959260649858383e+00 6.396673594986908296e-02
1.815496699286867632e-01 1.733166722617696394e+02 2.956908132805119660e+00 6.612943759837702773e-02
1.832593829822613818e-01 1.749772221254936255e+02 3.068555694500544995e+00 6.834047684545895007e-02
1.849690960358360003e-01 1.766388311881891298e+02 3.183988860928188558e+00 7.060023877801949177e-02
1.866788090894106467e-01 1.783015250549227346e+02 3.303295530296435967e+00 7.290910200555471288e-02
1.883885221429852930e-01 1.799653296712342012e+02 3.426564585163813348e+00 7.526743854472540962e-02
1.900982351965599115e-01 1.816302713228067773e+02 3.553885893806860707e+00 7.767561370383604946e-02
1.918079482501345301e-01 1.832963766351592767e+02 3.685350311621200081e+00 8.013398596730840484e-02
1.935176613037091764e-01 1.849636725733641924e+02 3.821049682554943594e+00 8.264290688023812059e-02
1.952273743572838227e-01 1.866321864417867289e+02 3.961076840573614977e+00 8.520272093312429573e-02
1.969370874108584413e-01 1.883019458838465710e+02 4.105525611155778520e+00 8.781376544686100849e-02
1.986468004644330598e-01 1.899729788818014811e+02 4.254490812818554346e+00 9.047637045808036571e-02
2.003565135180077061e-01 1.916453137565513885e+02 4.408068258672222406e+00 9.319085860493638018e-02
2.020662265715823525e-01 1.933189791674617766e+02 4.566354758003134506e+00 9.595754501341997866e-02
2.037759396251569710e-01 1.949940041122077048e+02 4.729448117884170522e+00 9.877673718429434702e-02
2.812499000409700578e-01 2.727105398341693672e+02 1.576193511422762583e+01 1.832858375106860560e-01
3.587238604567831723e-01 3.544067795617481806e+02 3.428436369192887412e+01 2.677949378370777511e-01
4.361978208725962869e-01 4.409426420545271412e+02 6.123604267904204335e+01 3.523040381634695017e-01
5.136717812884094014e-01 5.330499064239766085e+02 9.772589770105018658e+01 4.368131384898612524e-01
5.911457417042225160e-01 6.314171716606371092e+02 1.450288254859162009e+02 5.213222388162529475e-01
6.686197021200356305e-01 7.367035756188537334e+02 2.035615303076025100e+02 5.875748053651947966e-01
7.460936625358487451e-01 8.492902422262297932e+02 2.683728916401067295e+02 5.652928730161503879e-01
8.235676229516618596e-01 9.686868875847425215e+02 3.344595875775263494e+02 5.430109406671058681e-01
9.010415833674749742e-01 1.094343273880587276e+03 4.012240546315105121e+02 5.207290083180614593e-01
9.785155437832880887e-01 1.225755193105229409e+03 4.681292619000408877e+02 4.984470759690170505e-01
1.055989504199101203e+00 1.362458001461890944e+03 5.346913733665754762e+02 4.761651436199726417e-01
1.133463464614914429e+00 1.504021573503559921e+03 6.004738201684612022e+02 4.538832112709281774e-01
1.210937425030727432e+00 1.650046271344637717e+03 6.650824022028526770e+02 4.316012789218838241e-01
1.288411385446540658e+00 1.800159660301585063e+03 7.281611638294180011e+02 4.093193465728393043e-01
1.365885345862353883e+00 1.954013786796295790e+03 7.893888666630319904e+02 3.870374142237948956e-01
1.443359306278166887e+00 2.111282888740714952e+03 8.484759331174481076e+02 3.647554818747504868e-01
1.520833266693979891e+00 2.271661444729745199e+03 9.051617682422154303e+02 3.424735495257060780e-01
1.598307227109793116e+00 2.434862492995944194e+03 9.592123906890158196e+02 3.201916171766616137e-01
1.675781187525606342e+00 2.600616168276300414e+03 1.010418320053176899e+03 2.979096848276171494e-01
1.753255147941419345e+00 2.768668417003373634e+03 1.058592679647777913e+03 2.756277524785727406e-01
1.830729108357232349e+00 2.938882288776638234e+03 1.110235959851186180e+03 3.307320983620466448e-01
1.908203068773045574e+00 3.111507043879105368e+03 1.173503500452198523e+03 4.015732025633287905e-01
1.985677029188858800e+00 3.286960720866562042e+03 1.250249757906298555e+03 4.724143067646109362e-01
2.063150989604671803e+00 3.465670271675980075e+03 1.341093305402547003e+03 5.432554109658929153e-01
