# density  energy_density  pressure   sound_speed_squared  [All in nuclear units]
2.720000000000000022e-14 2.529924618736292620e-11 1.061056609100270887e-19 3.766610435412189122e-08
1.269999999999999890e-13 1.181251617980081254e-10 4.870113551826584858e-18 6.497781477172163475e-08
6.929999999999999754e-13 6.445728594625782745e-10 1.018299070687946017e-16 3.033770597342807186e-07
6.295000000000000137e-12 5.855111460395753757e-09 5.487150723824490656e-15 1.763710043904196507e-06
1.581000000000000150e-11 1.470523320212576141e-08 2.904239460150760759e-14 3.559434472327477622e-06
3.971999999999999958e-11 3.694456170323160790e-08 1.439340266754906811e-13 6.772854871245677111e-06
9.975999999999999982e-11 9.278976412613005154e-08 6.812143616221268841e-13 1.246890511177539320e-05
2.505999999999999928e-10 2.330928829758143313e-07 3.107749196951638608e-12 2.212095130576091967e-05
6.294000000000000186e-10 5.854398883216247602e-07 1.363250409771533549e-11 3.761981047239428883e-05
1.581000000000000021e-09 1.470619631082054101e-06 5.726014178088476303e-11 6.095350986710739404e-05
3.971999999999999932e-09 3.694861084648016046e-06 2.210019573374265380e-10 8.628023653304385055e-05
5.000000000000000105e-09 4.651201787816927976e-06 3.071485916280120014e-10 9.387863480799757518e-05
9.975999999999999465e-09 9.280587964640925786e-06 8.385361004129998845e-10 1.356922228656245837e-04
1.989999999999999952e-08 1.851419242998081003e-05 2.287763168863418088e-09 1.782101978513718314e-04
3.972999999999999908e-08 3.696699295748789187e-05 6.061583099087538954e-09 2.308134738384234820e-04
7.925999999999999637e-08 7.375765469301719828e-05 1.575347858094044765e-08 2.960532096713864875e-04
1.580999999999999930e-07 1.471491184379128891e-04 3.910429618672550719e-08 3.402859755131850544e-04
1.991000000000000027e-07 1.853209783927820692e-04 5.252045687899177454e-08 3.626488188833278743e-04
3.155999999999999938e-07 2.938002528823880299e-04 9.730770378831954314e-08 4.630767356912104081e-04
5.000999999999999849e-07 4.656344063839075714e-04 1.837494945860225819e-07 5.430301232045120323e-04
6.295999999999999732e-07 5.862651417037388971e-04 2.503103884558263872e-07 5.605192962670089638e-04
9.666999999999999941e-07 9.003386739730535665e-04 4.324450868778576936e-07 5.993081670211623108e-04
1.531999999999999901e-06 1.427170885631398036e-03 7.780217275717420968e-07 7.125938556504039095e-04
2.506999999999999883e-06 2.336134972129507662e-03 1.471005394641589826e-06 8.121876172121876309e-04
3.974000000000000407e-06 3.704315759716615697e-03 2.695705763844323844e-06 9.780674166779417152e-04
4.830000000000000343e-06 4.502887798316278223e-03 3.503988717694660908e-06 1.046253037768318664e-03
6.080999999999999885e-06 5.670217999231269741e-03 4.731126407333307547e-06 1.056224360839501646e-03
7.930000000000000308e-06 7.396012414119570652e-03 6.599662989063778187e-06 1.109203753630785610e-03
9.982000000000000313e-06 9.311815711689977113e-03 8.879881089227186733e-06 1.271216815433141075e-03
1.256999999999999993e-05 1.172874412604260098e-02 1.207676739913533738e-05 1.374195438212825332e-03
1.521999999999999997e-05 1.420427250933824909e-02 1.547541302213394990e-05 1.371610497379100249e-03
1.991000000000000080e-05 1.858690797761085312e-02 2.160710455847765458e-05 1.426578142835871997e-03
2.506999999999999883e-05 2.341050104039446925e-02 2.908031724375689851e-05 1.672007475975408053e-03
2.790999999999999875e-05 2.606604784714952258e-02 3.357009132255487721e-05 1.709425557744154774e-03
3.806999999999999973e-05 3.556967988784798945e-02 4.986781576435106434e-05 1.720407281314112165e-03
5.063000000000000145e-05 4.732434580343149871e-02 7.073400252905581275e-05 1.829889149838781265e-03
6.592000000000000583e-05 6.164112392498975052e-02 9.765037643900635188e-05 1.930242980462695823e-03
8.433000000000000066e-05 7.888776783401378612e-02 1.317235490470395893e-04 2.021055815200022837e-03
1.062000000000000064e-04 9.938561165478684845e-02 1.740088341640037047e-04 2.104789529260958983e-03
1.321000000000000126e-04 1.236720406455826121e-01 2.260189757651373944e-04 2.178291718403657477e-03
1.623999999999999901e-04 1.520974545104751274e-01 2.888169908545388338e-04 2.240170365918073281e-03
1.689999999999999879e-04 1.582907717069566844e-01 3.027354772999506964e-04 2.254509350360745651e-03
1.758999999999999930e-04 1.647661861691531171e-01 3.173785841705756782e-04 2.268169273277113179e-03
1.830000000000000029e-04 1.714298948183871907e-01 3.325196584577469103e-04 2.276170334580628063e-03
1.901999999999999882e-04 1.781880600978280049e-01 3.479577791899843742e-04 2.292561569242367037e-03
1.977000000000000079e-04 1.852284385240466902e-01 3.641242634600037713e-04 2.299943765467868384e-03
2.054000000000000053e-04 1.924572004474696396e-01 3.808304060475003897e-04 2.322187632288155723e-03
2.079000000000000119e-04 1.948043378760714872e-01 3.864137987380476553e-04 2.435429768083530178e-03
2.081999999999999921e-04 1.950859988578999005e-01 3.870314100985603909e-04 1.950065624557156818e-03
2.090999999999999868e-04 1.959309855029948977e-01 3.881261957135444685e-04 6.411875526909013856e-04
2.159999999999999919e-04 2.024093317906446865e-01 3.940874488768042125e-04 1.199166870571831411e-03
2.231000000000000019e-04 2.090756740932291913e-01 4.013938420547467825e-04 9.928616047829054436e-04
2.311000000000000066e-04 2.165873044433437034e-01 4.085241694843774404e-04 9.056166966301716637e-04
2.401000000000000085e-04 2.250381721984245909e-01 4.159700687886608468e-04 8.565463878902855599e-04
2.500000000000000052e-04 2.343344406330727658e-01 4.237602369176299592e-04 8.194318812157330018e-04
2.642999999999999733e-04 2.477629128650125634e-01 4.345596643180389446e-04 7.890063723638815647e-04
3.052999999999999941e-04 2.862671839140227270e-01 4.644058706720978241e-04 7.612775562167708662e-04
3.533000000000000224e-04 3.313503829113090826e-01 4.987577676308450197e-04 7.626578558207241024e-04
4.075999999999999871e-04 3.823564017794535141e-01 5.381334366106255759e-04 7.813048116943254948e-04
4.679999999999999915e-04 4.390986251953180042e-01 5.832692638200615834e-04 8.096035963157804938e-04
5.341000000000000261e-04 5.012024644415256081e-01 6.346556894078133086e-04 8.452514814113673558e-04
6.059000000000000366e-04 5.686690698184251325e-01 6.930641302632923034e-04 8.862253587289389486e-04
7.661000000000000275e-04 7.192254882508629654e-01 8.328184776562496576e-04 9.702780530519144065e-04
1.262000000000000101e-03 1.185459127778160093e+00 1.338484980802662205e-03 1.198863597978450275e-03
1.894999999999999983e-03 1.780909071169781921e+00 2.123481960401060308e-03 1.437771491635827115e-03
2.673000000000000029e-03 2.513147344746868850e+00 3.261860252001994032e-03 1.671524566936786766e-03
3.605999999999999830e-03 3.391736073717691369e+00 4.828136641022434151e-03 1.893900408978071038e-03
4.709999999999999777e-03 4.431905410739045870e+00 6.903512974832482635e-03 2.096551352830673849e-03
7.496000000000000059e-03 7.058993649504918366e+00 1.289742191321638018e-02 2.466596387205546859e-03
1.119999999999999989e-02 1.055540362104863661e+01 2.212077014004794340e-02 2.809304433764861584e-03
1.600000000000000033e-02 1.509117352747679952e+01 3.559566804390756900e-02 3.132325055719984222e-03
2.206999999999999934e-02 2.083310616724802244e+01 5.457322122755020599e-02 3.477840948757840792e-03
2.947999999999999926e-02 2.785007348564149154e+01 8.049103664263126956e-02 3.909302116317729670e-03
4.268000000000000266e-02 4.036707211535221518e+01 1.353887601042819133e-01 4.862066536253286525e-03
6.219999999999999835e-02 5.891246509830522626e+01 2.419691225623893105e-01 6.630786177272363080e-03
7.316999999999999893e-02 6.935151695866235855e+01 3.161896974764099033e-01 7.588671314871411888e-03
7.595999999999999974e-02 7.200836722020332559e+01 3.371250777904805096e-01 8.170805199905812125e-03
7.685877551020407761e-02 7.286441678937214306e+01 3.442042902392358772e-01 8.368444932874415793e-03
7.775755102040816935e-02 7.372055012992376533e+01 3.514528406727511767e-01 8.564774719037139550e-03
7.865632653061224722e-02 7.457676822495498925e+01 3.588696895015385246e-01 8.759889137335932427e-03
7.955510204081632508e-02 7.543307202367506648e+01 3.664538780806643192e-01 8.953882766712767741e-03
8.045387755102040295e-02 7.628946244346887795e+01 3.742045287275433951e-01 9.146850186109603195e-03
8.135265306122449469e-02 7.714594037186832054e+01 3.821208447421324261e-01 9.338885974468408638e-03
8.225142857142857256e-02 7.800250666843629688e+01 3.902021104293714182e-01 9.530084710731134834e-03
8.315020408163265042e-02 7.885916216656966071e+01 3.984476911237382346e-01 9.720540973839749896e-03
8.404897959183672829e-02 7.971590767522334886e+01 4.068570332157877556e-01 9.910349342736216732e-03
8.494775510204082003e-02 8.057274398056171094e+01 4.154296641805618751e-01 1.009960439636249999e-02
8.584653061224489790e-02 8.142967184754007803e+01 4.241651926077623092e-01 1.028840071366055389e-02
8.674530612244897576e-02 8.228669202142056349e+01 4.330633082335917927e-01 1.047683287357234483e-02
8.764408163265305363e-02 8.314380522922489547e+01 4.421237819741714037e-01 1.066499545503984264e-02
8.854285714285714537e-02 8.400101218112874335e+01 4.513464659604555784e-01 1.085298303700500157e-02
8.944163265306122323e-02 8.485831357179900181e+01 4.607312935745692117e-01 1.104089019840978451e-02
9.034040816326530110e-02 8.571571008167832417e+01 4.702782794875020045e-01 1.122881151819615266e-02
9.123918367346939284e-02 8.657320237821859621e+01 4.799875196980969982e-01 1.141684157530607237e-02
9.213795918367347071e-02 8.743079111706630613e+01 4.898591915732791735e-01 1.160507494868150136e-02
9.303673469387754857e-02 8.828847694320189987e+01 4.998935538894772046e-01 1.179360621726440600e-02
9.393551020408162644e-02 8.914626049203567959e+01 5.100909468751909648e-01 1.198252995999674921e-02
9.483428571428570431e-02 9.000414239046213538e+01 5.204517922546684217e-01 1.217194075582049041e-02
9.573306122448979605e-02 9.086212325787471400e+01 5.309765932926561183e-01 1.236193318367759600e-02
9.663183673469387391e-02 9.172020370714274407e+01 5.416659348401935414e-01 1.255260182251002540e-02
9.753061224489795178e-02 9.257838434555276308e+01 5.525204833814262306e-01 1.274404125125973286e-02
9.842938775510204352e-02 9.343666577571551102e+01 5.635409870814137578e-01 1.293634604886869863e-02
9.932816326530612139e-02 9.429504859643962789e+01 5.747282758349145926e-01 1.312961079427887173e-02
1.002269387755101993e-01 9.515353340357523848e+01 5.860832613161344185e-01 1.332393006643221509e-02
1.011257142857142910e-01 9.601212079082675643e+01 5.976069370294228023e-01 1.351939844427070027e-02
1.020244897959183689e-01 9.687081135053786340e+01 6.093003783609107771e-01 1.371611050673627631e-02
1.029232653061224467e-01 9.772960567444926028e+01 6.211647426310851205e-01 1.391416083277091653e-02
1.038220408163265246e-01 9.858850435442951721e+01 6.332012691482918898e-01 1.411364400131657343e-02
1.047208163265306025e-01 9.944750798318257523e+01 6.454112792631715445e-01 1.431465459131522205e-02
1.056195918367346942e-01 1.003066171549302226e+02 6.577961764240258802e-01 1.451728718170881838e-02
1.065183673469387721e-01 1.011658324660723167e+02 6.703574462331202133e-01 1.472163635143932184e-02
1.074171428571428499e-01 1.020251545158249940e+02 6.830966565039287008e-01 1.492779667944869881e-02
1.083159183673469417e-01 1.028845839068383867e+02 6.960154573193282346e-01 1.513586274467890874e-02
1.092146938775510195e-01 1.037441212457938917e+02 7.091155810907514567e-01 1.534592912607191453e-02
1.101134693877550974e-01 1.046037671439823953e+02 7.223988426183136635e-01 1.555809040256968256e-02
1.110122448979591891e-01 1.054635222178640959e+02 7.358671391519225891e-01 1.577244115311417227e-02
1.119110204081632531e-01 1.063233870896111171e+02 7.495224504533881671e-01 1.598907595664733963e-02
1.128097959183673449e-01 1.071833623876322434e+02 7.633668388595523657e-01 1.620808939211115796e-02
1.137085714285714227e-01 1.080434487470826497e+02 7.774024493464495311e-01 1.642957603844758321e-02
1.146073469387755006e-01 1.089036468103569604e+02 7.916315095945264391e-01 1.665363047459857485e-02
1.155061224489795924e-01 1.097639572275677153e+02 8.060563300549354881e-01 1.688034727950610964e-02
1.164048979591836702e-01 1.106243806570100787e+02 8.206793040169266806e-01 1.710982103211213315e-02
1.173036734693877481e-01 1.114849177656115273e+02 8.355029076763630380e-01 1.734214631135861176e-02
1.182024489795918398e-01 1.123455692293694455e+02 8.505297002053817668e-01 1.757741769618751879e-02
1.191012244897959177e-01 1.132063357337752905e+02 8.657623238232274865e-01 1.781572976554080326e-02
1.199999999999999956e-01 1.140672179742263239e+02 8.812035038682874966e-01 1.805717709836043156e-02
1.216287044916713467e-01 1.156275523808544676e+02 9.097267896255516462e-01 1.850325490136366102e-02
1.232574089833426839e-01 1.171882734976309450e+02 9.389629277389066608e-01 1.896160730100577077e-02
1.248861134750140350e-01 1.187493857645188911e+02 9.689317162873591904e-01 1.943249188225353724e-02
1.265148179666853723e-01 1.203108937666591629e+02 9.996533817896389174e-01 1.991616958129755616e-02
1.281435224583567234e-01 1.218728022343190673e+02 1.031148585492339897e+00 2.041290471736027443e-02
1.297722269500280745e-01 1.234351160429248608e+02 1.063438429743824631e+00 2.092296502067648653e-02
1.314009314416994256e-01 1.249978402131715995e+02 1.096544464449205503e+00 2.144662165671222878e-02
1.330296359333707767e-01 1.265609799112096709e+02 1.130488693601834127e+00 2.198414924668516679e-02
1.346583404250421001e-01 1.281245404489011150e+02 1.165293581886842178e+00 2.253582588443622456e-02
1.362870449167134512e-01 1.296885272841448966e+02 1.200982061352379837e+00 2.310193314970006295e-02
1.379157494083848023e-01 1.312529460212665242e+02 1.237577538144277955e+00 2.368275611781284554e-02
1.395444539000561535e-01 1.328178024114684490e+02 1.275103899299958155e+00 2.427858336589071991e-02
1.411731583917275046e-01 1.343831023533398650e+02 1.313585519597465723e+00 2.488970697550854649e-02
1.428018628833988557e-01 1.359488518934222441e+02 1.353047268455580099e+00 2.551642253190086404e-02
1.444305673750702068e-01 1.375150572268273947e+02 1.393514516881005694e+00 2.615902911970549582e-02
1.460592718667415302e-01 1.390817246979066510e+02 1.435013144458695988e+00 2.681782931526442704e-02
1.476879763584128813e-01 1.406488608009688335e+02 1.477569546381414689e+00 2.749312917549372529e-02
1.493166808500842324e-01 1.422164721810430308e+02 1.521210640514658374e+00 2.818523822333024800e-02
1.509453853417555835e-01 1.437845656346867145e+02 1.565963874493121022e+00 2.889446942976100705e-02
1.525740898334269346e-01 1.453531481108344678e+02 1.611857232844886578e+00 2.962113919243700502e-02
1.542027943250982580e-01 1.469222267116876992e+02 1.658919244139568816e+00 3.036556731087167865e-02
1.558314988167696091e-01 1.484918086936417296e+02 1.707178988156639043e+00 3.112807695822156218e-02
1.574602033084409602e-01 1.500619014682493457e+02 1.756666103070180895e+00 3.190899464964508381e-02
1.590889078001123114e-01 1.516325126032182879e+02 1.807410792646347852e+00 3.270865020723265348e-02
1.607176122917836625e-01 1.532036498234430439e+02 1.859443833449781147e+00 3.352737672150118975e-02
1.623463167834550136e-01 1.547753210120662857e+02 1.912796582055264594e+00 3.436551050944275376e-02
1.639750212751263647e-01 1.563475342115708031e+02 1.967500982260889764e+00 3.522339106911798884e-02
1.656037257667977158e-01 1.579202976248998596e+02 2.023589572299004047e+00 3.610136103078172981e-02
1.672324302584690392e-01 1.594936196166038940e+02 2.081095492041209027e+00 3.699976610452904852e-02
1.688611347501403903e-01 1.610675087140128028e+02 2.140052490193673496e+00 3.791895502444829480e-02
1.704898392418117414e-01 1.626419736084328918e+02 2.200494931479005434e+00 3.885927948926695685e-02
1.721185437334830926e-01 1.642170231563656557e+02 2.262457803800937750e+00 3.982109409947649781e-02
1.737472482251544159e-01 1.657926663807483578e+02 2.325976725388045896e+00 4.080475629092107648e-02
1.753759527168257670e-01 1.673689124722159249e+02 2.391087951912720833e+00 4.181062626483552508e-02
1.770046572084971181e-01 1.689457707903807204e+02 2.457828383581580400e+00 4.283906691431729752e-02
1.786333617001684693e-01 1.705232508651307626e+02 2.526235572193519463e+00 4.389044374721783742e-02
1.802620661918398204e-01 1.721013623979445413e+02 2.596347728161543689e+00 4.496512480543796847e-02
1.818907706835111715e-01 1.736801152632224046e+02 2.668203727494533162e+00 4.606348058061360967e-02
1.835194751751825226e-01 1.752595195096315592e+02 2.741843118735051821e+00 4.718588392617665411e-02
1.851481796668538737e-01 1.768395853614651401e+02 2.817306129849298291e+00 4.833270996577820888e-02
1.867768841585252249e-01 1.784203232200138132e+02 2.894633675065265255e+00 4.950433599806065843e-02
1.884055886501965482e-01 1.800017436649488332e+02 2.973867361655153196e+00 5.070114139776628337e-02
1.900342931418678993e-01 1.815838574557159291e+02 3.055049496658063468e+00 5.192350751317113128e-02
1.916629976335392505e-01 1.831666755329382283e+02 3.138223093538937913e+00 5.317181755983295399e-02
1.932917021252105738e-01 1.847502090198280200e+02 3.223431878779738469e+00 5.444645651064419778e-02
1.949204066168819249e-01 1.863344692236067317e+02 3.310720298398782013e+00 5.574781098218142827e-02
1.965491111085532761e-01 1.879194676369307331e+02 3.400133524394125306e+00 5.707626911734322434e-02
1.981778156002246272e-01 1.895052159393226816e+02 3.491717461106897513e+00 5.843222046427191257e-02
1.998065200918959783e-01 1.910917259986097463e+02 3.585518751500402335e+00 5.981605585155310573e-02
2.773614890696123880e-01 2.680532313408628511e+02 1.215040689521732098e+01 1.609430081441046712e-01
3.549164580473287978e-01 3.484762546890141266e+02 2.927147100906741883e+01 2.620699604366562019e-01
4.324714270250452075e-01 4.335958361676631512e+02 5.603286454914406534e+01 3.631969127292077326e-01
5.100263960027615617e-01 5.244155024474898710e+02 9.380289243963468948e+01 4.643238650217592633e-01
5.875813649804779715e-01 6.218578187881290660e+02 1.442152035223184612e+02 5.654508173143109051e-01
6.651363339581943812e-01 7.268328808160796370e+02 2.091775200582229672e+02 6.665777696068624358e-01
7.426913029359107909e-01 8.402760877722780606e+02 2.908935310894788131e+02 7.677047218994140776e-01
8.202462719136272007e-01 9.631259342413328568e+02 3.866561269329805555e+02 7.901610886181676952e-01
8.978012408913436104e-01 1.095261068456255998e+03 4.752822365037429222e+02 5.632067794407129568e-01
9.753562098690600202e-01 1.234118549591305964e+03 5.492938019161031207e+02 5.050073492052686852e-01
1.052911178846776430e+00 1.378786643077698500e+03 6.245440638446854109e+02 5.346064268310553036e-01
1.130466147824492840e+00 1.529265979726418664e+03 7.072723294734167894e+02 5.642055044568419220e-01
1.208021116802209249e+00 1.685684789326602868e+03 7.978970379304030303e+02 5.938045820826285404e-01
1.285576085779925659e+00 1.848182275500493006e+03 8.968547034508417255e+02 6.234036597084151587e-01
1.363131054757642069e+00 2.016907738745857387e+03 1.004600654914040661e+03 6.530027373342017771e-01
1.440686023735358479e+00 2.192019942772177274e+03 1.121609808256288261e+03 6.826018149599883955e-01
1.518240992713074888e+00 2.373686660156140533e+03 1.248377470282932109e+03 7.122008925857750139e-01
1.595795961690791298e+00 2.562084352972866327e+03 1.385420173448584137e+03 7.417999702115616323e-01
1.673350930668507708e+00 2.757397957026805670e+03 1.533276541814175971e+03 7.713990478373482507e-01
1.750905899646224118e+00 2.959820747076355474e+03 1.692508188793040063e+03 8.009981254631349801e-01
1.828460868623940527e+00 3.169554266503217150e+03 1.863700647561218830e+03 8.305972030889215985e-01
1.906015837601656937e+00 3.386808309140396887e+03 2.047464335185523623e+03 8.601962807147082168e-01
1.983570806579373347e+00 3.611800944024406363e+03 2.244435551649575700e+03 8.897953583404949462e-01
2.061125775557089757e+00 3.844758576056110542e+03 2.455277515053203388e+03 9.193944359662815646e-01
