# density  energy_density  pressure   sound_speed_squared  [All in nuclear units]
2.720000000000000022e-14 2.529924618736292620e-11 1.061056609100270887e-19 3.766610435412189122e-08
1.269999999999999890e-13 1.181251617980081254e-10 4.870113551826584858e-18 6.497781477172163475e-08
6.929999999999999754e-13 6.445728594625782745e-10 1.018299070687946017e-16 3.033770597342807186e-07
6.295000000000000137e-12 5.855111460395753757e-09 5.487150723824490656e-15 1.763710043904196507e-06
1.581000000000000150e-11 1.470523320212576141e-08 2.904239460150760759e-14 3.559434472327477622e-06
3.971999999999999958e-11 3.694456170323160790e-08 1.439340266754906811e-13 6.772854871245677111e-06
9.975999999999999982e-11 9.278976412613005154e-08 6.812143616221268841e-13 1.246890511177539320e-05
2.505999999999999928e-10 2.330928829758143313e-07 3.107749196951638608e-12 2.212095130576091967e-05
6.294000000000000186e-10 5.854398883216247602e-07 1.363250409771533549e-11 3.761981047239428883e-05
1.581000000000000021e-09 1.470619631082054101e-06 5.726014178088476303e-11 6.095350986710739404e-05
3.971999999999999932e-09 3.694861084648016046e-06 2.210019573374265380e-10 8.628023653304385055e-05
5.000000000000000105e-09 4.651201787816927976e-06 3.071485916280120014e-10 9.387863480799757518e-05
9.975999999999999465e-09 9.280587964640925786e-06 8.385361004129998845e-10 1.356922228656245837e-04
1.989999999999999952e-08 1.851419242998081003e-05 2.287763168863418088e-09 1.782101978513718314e-04
3.972999999999999908e-08 3.696699295748789187e-05 6.061583099087538954e-09 2.308134738384234820e-04
7.925999999999999637e-08 7.375765469301719828e-05 1.575347858094044765e-08 2.960532096713864875e-04
1.580999999999999930e-07 1.471491184379128891e-04 3.910429618672550719e-08 3.402859755131850544e-04
1.991000000000000027e-07 1.853209783927820692e-04 5.252045687899177454e-08 3.626488188833278743e-04
3.155999999999999938e-07 2.938002528823880299e-04 9.730770378831954314e-08 4.630767356912104081e-04
5.000999999999999849e-07 4.656344063839075714e-04 1.837494945860225819e-07 5.430301232045120323e-04
6.295999999999999732e-07 5.862651417037388971e-04 2.503103884558263872e-07 5.605192962670089638e-04
9.666999999999999941e-07 9.003386739730535665e-04 4.324450868778576936e-07 5.993081670211623108e-04
1.531999999999999901e-06 1.427170885631398036e-03 7.780217275717420968e-07 7.125938556504039095e-04
2.506999999999999883e-06 2.336134972129507662e-03 1.471005394641589826e-06 8.121876172121876309e-04
3.974000000000000407e-06 3.704315759716615697e-03 2.695705763844323844e-06 9.780674166779417152e-04
4.830000000000000343e-06 4.502887798316278223e-03 3.503988717694660908e-06 1.046253037768318664e-03
6.080999999999999885e-06 5.670217999231269741e-03 4.731126407333307547e-06 1.056224360839501646e-03
7.930000000000000308e-06 7.396012414119570652e-03 6.599662989063778187e-06 1.109203753630785610e-03
9.982000000000000313e-06 9.311815711689977113e-03 8.879881089227186733e-06 1.271216815433141075e-03
1.256999999999999993e-05 1.172874412604260098e-02 1.207676739913533738e-05 1.374195438212825332e-03
1.521999999999999997e-05 1.420427250933824909e-02 1.547541302213394990e-05 1.371610497379100249e-03
1.991000000000000080e-05 1.858690797761085312e-02 2.160710455847765458e-05 1.426578142835871997e-03
2.506999999999999883e-05 2.341050104039446925e-02 2.908031724375689851e-05 1.672007475975408053e-03
2.790999999999999875e-05 2.606604784714952258e-02 3.357009132255487721e-05 1.709425557744154774e-03
3.806999999999999973e-05 3.556967988784798945e-02 4.986781576435106434e-05 1.720407281314112165e-03
5.063000000000000145e-05 4.732434580343149871e-02 7.073400252905581275e-05 1.829889149838781265e-03
6.592000000000000583e-05 6.164112392498975052e-02 9.765037643900635188e-05 1.930242980462695823e-03
8.433000000000000066e-05 7.888776783401378612e-02 1.317235490470395893e-04 2.021055815200022837e-03
1.062000000000000064e-04 9.938561165478684845e-02 1.740088341640037047e-04 2.104789529260958983e-03
1.321000000000000126e-04 1.236720406455826121e-01 2.260189757651373944e-04 2.178291718403657477e-03
1.623999999999999901e-04 1.520974545104751274e-01 2.888169908545388338e-04 2.240170365918073281e-03
1.689999999999999879e-04 1.582907717069566844e-01 3.027354772999506964e-04 2.254509350360745651e-03
1.758999999999999930e-04 1.647661861691531171e-01 3.173785841705756782e-04 2.268169273277113179e-03
1.830000000000000029e-04 1.714298948183871907e-01 3.325196584577469103e-04 2.276170334580628063e-03
1.901999999999999882e-04 1.781880600978280049e-01 3.479577791899843742e-04 2.292561569242367037e-03
1.977000000000000079e-04 1.852284385240466902e-01 3.641242634600037713e-04 2.299943765467868384e-03
2.054000000000000053e-04 1.924572004474696396e-01 3.808304060475003897e-04 2.322187632288155723e-03
2.079000000000000119e-04 1.948043378760714872e-01 3.864137987380476553e-04 2.435429768083530178e-03
2.081999999999999921e-04 1.950859988578999005e-01 3.870314100985603909e-04 1.950065624557156818e-03
2.090999999999999868e-04 1.959309855029948977e-01 3.881261957135444685e-04 6.411875526909013856e-04
2.159999999999999919e-04 2.024093317906446865e-01 3.940874488768042125e-04 1.199166870571831411e-03
2.231000000000000019e-04 2.090756740932291913e-01 4.013938420547467825e-04 9.928616047829054436e-04
2.311000000000000066e-04 2.165873044433437034e-01 4.085241694843774404e-04 9.056166966301716637e-04
2.401000000000000085e-04 2.250381721984245909e-01 4.159700687886608468e-04 8.565463878902855599e-04
2.500000000000000052e-04 2.343344406330727658e-01 4.237602369176299592e-04 8.194318812157330018e-04
2.642999999999999733e-04 2.477629128650125634e-01 4.345596643180389446e-04 7.890063723638815647e-04
3.052999999999999941e-04 2.862671839140227270e-01 4.644058706720978241e-04 7.612775562167708662e-04
3.533000000000000224e-04 3.313503829113090826e-01 4.987577676308450197e-04 7.626578558207241024e-04
4.075999999999999871e-04 3.823564017794535141e-01 5.381334366106255759e-04 7.813048116943254948e-04
4.679999999999999915e-04 4.390986251953180042e-01 5.832692638200615834e-04 8.096035963157804938e-04
5.341000000000000261e-04 5.012024644415256081e-01 6.346556894078133086e-04 8.452514814113673558e-04
6.059000000000000366e-04 5.686690698184251325e-01 6.930641302632923034e-04 8.862253587289389486e-04
7.661000000000000275e-04 7.192254882508629654e-01 8.328184776562496576e-04 9.702780530519144065e-04
1.262000000000000101e-03 1.185459127778160093e+00 1.338484980802662205e-03 1.198863597978450275e-03
1.894999999999999983e-03 1.780909071169781921e+00 2.123481960401060308e-03 1.437771491635827115e-03
2.673000000000000029e-03 2.513147344746868850e+00 3.261860252001994032e-03 1.671524566936786766e-03
3.605999999999999830e-03 3.391736073717691369e+00 4.828136641022434151e-03 1.893900408978071038e-03
4.709999999999999777e-03 4.431905410739045870e+00 6.903512974832482635e-03 2.096551352830673849e-03
7.496000000000000059e-03 7.058993649504918366e+00 1.289742191321638018e-02 2.466596387205546859e-03
1.119999999999999989e-02 1.055540362104863661e+01 2.212077014004794340e-02 2.809304433764861584e-03
1.600000000000000033e-02 1.509117352747679952e+01 3.559566804390756900e-02 3.132325055719984222e-03
2.206999999999999934e-02 2.083310616724802244e+01 5.457322122755020599e-02 3.477840948757840792e-03
2.947999999999999926e-02 2.785007348564149154e+01 8.049103664263126956e-02 3.909302116317729670e-03
4.268000000000000266e-02 4.036707211535221518e+01 1.353887601042819133e-01 4.862066536253286525e-03
6.219999999999999835e-02 5.891246509830522626e+01 2.419691225623893105e-01 6.630786177272363080e-03
7.316999999999999893e-02 6.935151695866235855e+01 3.161896974764099033e-01 7.588671314871411888e-03
7.595999999999999974e-02 7.200836722020332559e+01 3.371250777904805096e-01 8.170805199905812125e-03
7.685877551020407761e-02 7.286441677153673879e+01 3.442012380197252974e-01 8.361314688617300234e-03
7.775755102040816935e-02 7.372055001151505849e+01 3.514386405965073124e-01 8.545865205752159813e-03
7.865632653061224722e-02 7.457676780817148199e+01 3.588323476934452971e-01 8.724749807485075725e-03
7.955510204081632508e-02 7.543307095469224066e+01 3.663776707680628797e-01 8.898261549990748448e-03
8.045387755102040295e-02 7.628946017477046837e+01 3.740701706305002427e-01 9.066693489443869783e-03
8.135265306122449469e-02 7.714593612772202391e+01 3.819056575197324332e-01 9.230338682019133267e-03
8.225142857142857256e-02 7.800249941337528981e+01 3.898801911873739368e-01 9.389490183891228969e-03
8.315020408163265042e-02 7.885915057674868933e+01 3.979900809882350177e-01 9.544441051234850426e-03
8.404897959183672829e-02 7.971589011252747525e+01 4.062318859768680457e-01 9.695484340224691175e-03
8.494775510204082003e-02 8.057271846934861514e+01 4.146024150094188010e-01 9.842913107035446488e-03
8.584653061224489790e-02 8.142963605390701787e+01 4.230987268501600895e-01 9.987020407841801228e-03
8.674530612244897576e-02 8.228664323488986554e+01 4.317181302821521682e-01 1.012809929881845587e-02
8.764408163265305363e-02 8.314374034674929703e+01 4.404581842215264942e-01 1.026644283614010049e-02
8.854285714285714537e-02 8.400092769332202636e+01 4.493166978349494856e-01 1.040234407598143382e-02
8.944163265306122323e-02 8.485820555130200660e+01 4.582917306598690010e-01 1.053609607451713899e-02
9.034040816326530110e-02 8.571557417357617226e+01 4.673815927271983695e-01 1.066799188792191648e-02
9.123918367346939284e-02 8.657303379242752328e+01 4.765848446861314924e-01 1.079832457237045289e-02
9.213795918367347071e-02 8.743058462261376462e+01 4.859002979308285619e-01 1.092738718403744695e-02
9.303673469387754857e-02 8.828822686432698674e+01 4.953270147287505698e-01 1.105547277909758701e-02
9.393551020408162644e-02 8.914596070603990086e+01 5.048643083504539275e-01 1.118287441372557180e-02
9.483428571428570431e-02 9.000378632724489592e+01 5.145117432006944824e-01 1.130988514409608271e-02
9.573306122448979605e-02 9.086170390109022321e+01 5.242691349507215826e-01 1.143679802638382717e-02
9.663183673469387391e-02 9.171971359691816872e+01 5.341365506716707623e-01 1.156390611676349177e-02
9.753061224489795178e-02 9.257781558271061328e+01 5.441143089689972623e-01 1.169150247140976658e-02
9.842938775510204352e-02 9.343601002744522077e+01 5.542029801179128023e-01 1.181988014649734686e-02
9.932816326530612139e-02 9.429429710336695791e+01 5.644033861998183355e-01 1.194933219820092443e-02
1.002269387755101993e-01 9.515267698817848441e+01 5.747166012397493251e-01 1.208015168269519456e-02
1.011257142857142910e-01 9.601114986715363386e+01 5.851439513448688512e-01 1.221263165615485251e-02
1.020244897959183689e-01 9.686971593517645829e+01 5.956870148440673862e-01 1.234706517475458315e-02
1.029232653061224467e-01 9.772837539870991463e+01 6.063476224287508431e-01 1.248374529466908175e-02
1.038220408163265246e-01 9.858712847769716348e+01 6.171278572949114860e-01 1.262296507207304533e-02
1.047208163265306025e-01 9.944597540739768249e+01 6.280300552865998309e-01 1.276501756314116394e-02
1.056195918367346942e-01 1.003049164401624438e+02 6.390568050409290990e-01 1.291019582404813459e-02
1.065183673469387721e-01 1.011639518471491499e+02 6.502109481347614350e-01 1.305879291096864389e-02
1.074171428571428499e-01 1.020230819199810810e+02 6.614955792332415374e-01 1.321110188007738537e-02
1.083159183673469417e-01 1.028823069723520263e+02 6.729140462403537803e-01 1.336741578754905777e-02
1.092146938775510195e-01 1.037416273415784218e+02 6.844699504516967847e-01 1.352802768955834768e-02
1.101134693877550974e-01 1.046010433901022481e+02 6.961671467096814947e-01 1.369323064227994866e-02
1.110122448979591891e-01 1.054605555069463350e+02 7.080097435613690315e-01 1.386331770188856116e-02
1.119110204081632531e-01 1.063201641091228424e+02 7.200021034191782521e-01 1.403858192455887006e-02
1.128097959183673449e-01 1.071798696429989803e+02 7.321488427247062614e-01 1.421931636646557064e-02
1.137085714285714227e-01 1.080396725856198401e+02 7.444548321159076831e-01 1.440581408378335468e-02
1.146073469387755006e-01 1.088995734459905265e+02 7.569251965979021390e-01 1.459836813268691573e-02
1.155061224489795924e-01 1.097595727663201899e+02 7.695653157176741699e-01 1.479727156935094906e-02
1.164048979591836702e-01 1.106196711232279029e+02 7.823808237429493717e-01 1.500281744995014821e-02
1.173036734693877481e-01 1.114798691289135490e+02 7.953776098455379584e-01 1.521529883065919631e-02
1.182024489795918398e-01 1.123401674322931854e+02 8.085618182894390715e-01 1.543500876765279903e-02
1.191012244897959177e-01 1.132005667201022732e+02 8.219398486240149238e-01 1.566224031710564471e-02
1.199999999999999956e-01 1.140610677179665799e+02 8.355183558825486356e-01 1.589728653519241475e-02
1.235145074267502280e-01 1.174269080052262240e+02 8.906664600663705134e-01 1.687181003724935041e-02
1.270290148535004604e-01 1.207943647316179465e+02 9.491537523822169975e-01 1.786475780112533121e-02
1.305435222802506789e-01 1.241634864409718375e+02 1.011043618274196421e+00 1.887449210943336481e-02
1.340580297070009252e-01 1.275343206993100438e+02 1.076394177714221190e+00 1.989939913344583242e-02
1.375725371337511438e-01 1.309069140346150277e+02 1.145258357011638806e+00 2.093789061378107177e-02
1.410870445605013623e-01 1.342813118846528084e+02 1.217683965410051750e+00 2.198840551024301357e-02
1.446015519872516086e-01 1.376575585519643710e+02 1.293713776459972653e+00 2.304941162382642336e-02
1.481160594140018272e-01 1.410356971652705340e+02 1.373385614165721913e+00 2.411940719270478165e-02
1.516305668407520457e-01 1.444157696466429002e+02 1.456732443910426333e+00 2.519692246297966856e-02
1.551450742675022920e-01 1.477978166838822460e+02 1.543782468164655475e+00 2.628052123406249968e-02
1.586595816942525106e-01 1.511818777076233289e+02 1.634559226982622349e+00 2.736880237776443195e-02
1.621740891210027569e-01 1.545679908727486804e+02 1.729081703285293203e+00 2.846040132946195053e-02
1.656885965477529754e-01 1.579561930437464525e+02 1.827364432922497395e+00 2.955399154908307929e-02
1.692031039745032217e-01 1.613465197836972891e+02 1.929417619496540670e+00 3.064828594908557136e-02
1.727176114012534403e-01 1.647390053466105542e+02 2.035247253917973786e+00 3.174203828610361322e-02
1.762321188280036588e-01 1.681336826728650351e+02 2.144855238650435592e+00 3.283404451247147471e-02
1.797466262547539051e-01 1.715305833875371775e+02 2.258239516585813789e+00 3.392314408341556842e-02
1.832611336815041236e-01 1.749297378014252899e+02 2.375394204473683768e+00 3.500822121532289055e-02
1.867756411082543422e-01 1.783311749145969429e+02 2.496309730810095662e+00 3.608820609013948383e-02
1.902901485350045885e-01 1.817349224223045212e+02 2.620972978070389203e+00 3.716207600062558514e-02
1.938046559617548070e-01 1.851410067231301753e+02 2.749367429149010000e+00 3.822885643089069668e-02
1.973191633885050256e-01 1.885494529292328707e+02 2.881473317846265036e+00 3.928762206634862225e-02
2.008336708152552719e-01 1.919602848785788183e+02 3.017267783217683075e+00 4.033749772696773594e-02
2.043481782420055182e-01 1.953735251490507494e+02 3.156725027576273934e+00 4.137765921744416403e-02
2.078626856687557367e-01 1.987891950743329517e+02 3.299816477911492019e+00 4.240733408769199742e-02
2.113771930955059553e-01 2.022073147614769937e+02 3.446510950461192380e+00 4.342580229682545256e-02
2.148917005222562016e-01 2.056279031100620784e+02 3.596774818144396146e+00 4.443239677360123069e-02
2.184062079490064201e-01 2.090509778328581092e+02 3.750572180533339406e+00 4.542650386612490793e-02
2.219207153757566386e-01 2.124765554779148715e+02 3.907865036012780013e+00 4.640756367322234482e-02
2.254352228025068849e-01 2.159046514519909863e+02 4.068613455743897767e+00 4.737507025035660874e-02
2.289497302292571035e-01 2.193352800452453266e+02 4.232775759018053030e+00 4.832857168171678791e-02
2.324642376560073220e-01 2.227684544571125684e+02 4.400308689552836938e+00 4.926767001103422167e-02
2.359787450827575683e-01 2.262041868232828108e+02 4.571167592250040101e+00 5.019202102288287254e-02
2.394932525095078146e-01 2.296424882437060830e+02 4.745306589901046479e+00 5.110133386629249486e-02
2.430077599362580054e-01 2.330833688115420159e+02 4.922678759290697315e+00 5.199537051233819873e-02
2.465222673630082517e-01 2.365268376429751243e+02 5.103236306115615406e+00 5.287394503723832906e-02
2.500367747897584980e-01 2.399729029078087024e+02 5.286930738097324500e+00 5.373692272236522266e-02
2.535512822165086888e-01 2.434215718607573251e+02 5.473713035634450108e+00 5.458421896245136545e-02
2.570657896432589351e-01 2.468728508733477156e+02 5.663533819301619587e+00 5.541579797315206862e-02
2.605802970700091814e-01 2.503267454663377407e+02 5.856343513465560591e+00 5.623167128900435213e-02
2.640948044967593722e-01 2.537832603425650859e+02 6.052092505251436272e+00 5.703189604270293006e-02
2.676093119235096185e-01 2.572423994201244568e+02 6.250731298054353680e+00 5.781657301649048564e-02
2.711238193502598648e-01 2.607041658657785774e+02 6.452210658752514760e+00 5.858584445633353843e-02
2.746383267770100556e-01 2.641685621284998433e+02 6.656481757739606486e+00 5.933989163942470640e-02
2.781528342037603574e-01 2.676355899730334613e+02 6.863496300854539101e+00 6.007893218541447006e-02
2.816673416305105482e-01 2.711052505133769728e+02 7.073206652246654791e+00 6.080321710162932963e-02
2.851818490572607390e-01 2.745775442460587783e+02 7.285565947174263535e+00 6.151302755237749581e-02
2.886963564840110408e-01 2.780524710830980553e+02 7.500528193693019929e+00 6.220867134227644341e-02
2.922108639107612316e-01 2.815300303845250482e+02 7.718048362149196429e+00 6.289047910335478220e-02
3.678800299533987461e-01 3.579941376784174736e+02 2.296137122462022973e+01 3.289493112991465074e-01
4.435491959960362607e-01 4.395052578122121076e+02 6.126549089308930718e+01 5.950081434949382464e-01
5.192183620386737752e-01 5.292031293206862301e+02 1.145509123473945010e+02 5.941107615647621687e-01
5.948875280813112898e-01 6.270243979143484694e+02 1.724851650967651722e+02 5.912655229886862873e-01
6.705566941239488044e-01 7.324960495932728008e+02 2.346599021865109194e+02 5.884202844126104059e-01
7.462258601665863189e-01 8.452159888882990799e+02 3.007940358042276898e+02 5.855750458365345246e-01
8.218950262092238335e-01 9.648372992771198824e+02 3.706426273838314955e+02 5.827298072604586432e-01
8.975641922518613480e-01 1.091055879073654069e+03 4.439888893668602350e+02 5.798845686843827618e-01
9.732333582944988626e-01 1.223601699328854920e+03 5.206385363168403728e+02 5.770393301083068804e-01
1.048902524337136377e+00 1.362232415523197005e+03 6.004156567266495585e+02 5.741940915322309991e-01
1.124571690379773781e+00 1.506728570508776102e+03 6.831596104250774033e+02 5.713488529561551177e-01
1.200240856422411406e+00 1.656889909049281641e+03 7.687226415104607895e+02 5.685036143800792363e-01
1.275910022465049032e+00 1.812532490677152509e+03 8.569680048885315955e+02 5.656583758040033549e-01
1.351579188507686435e+00 1.973486389618149587e+03 9.477684705224878599e+02 5.628131372279274736e-01
1.427248354550324061e+00 2.139587535993065558e+03 1.040485839477417812e+03 5.539006215087913798e-01
1.502917520592961464e+00 2.310565883219377611e+03 1.128623282637053080e+03 4.786840823661151489e-01
1.578586686635598868e+00 2.485702941533176272e+03 1.205763714498185664e+03 4.034675432234389181e-01
1.654255852678236494e+00 2.664248941679007658e+03 1.271004122460414465e+03 3.282510040807624097e-01
1.729925018720874119e+00 2.845933519437442555e+03 1.359844069180984889e+03 6.446428527003275066e-01
1.805594184763511523e+00 3.032600856430498425e+03 1.502635280463716526e+03 8.786008455100557946e-01
1.881263350806148926e+00 3.226167626036348793e+03 1.676011079856437846e+03 9.116718880142092862e-01
1.956932516848786552e+00 3.426963774197927705e+03 1.862505639856139851e+03 9.447429305183628889e-01
2.032601682891423955e+00 3.635229173627636101e+03 2.061158712567167186e+03 9.623463732889778743e-01
2.108270848934061803e+00 3.851090319357277622e+03 2.268555013754279571e+03 9.593441598640294332e-01
