# density  energy_density  pressure   sound_speed_squared  [All in nuclear units]
2.720000000000000022e-14 2.529924618736292620e-11 1.061056609100270887e-19 3.766610435412189122e-08
1.269999999999999890e-13 1.181251617980081254e-10 4.870113551826584858e-18 6.497781477172163475e-08
6.929999999999999754e-13 6.445728594625782745e-10 1.018299070687946017e-16 3.033770597342807186e-07
6.295000000000000137e-12 5.855111460395753757e-09 5.487150723824490656e-15 1.763710043904196507e-06
1.581000000000000150e-11 1.470523320212576141e-08 2.904239460150760759e-14 3.559434472327477622e-06
3.971999999999999958e-11 3.694456170323160790e-08 1.439340266754906811e-13 6.772854871245677111e-06
9.975999999999999982e-11 9.278976412613005154e-08 6.812143616221268841e-13 1.246890511177539320e-05
2.505999999999999928e-10 2.330928829758143313e-07 3.107749196951638608e-12 2.212095130576091967e-05
6.294000000000000186e-10 5.854398883216247602e-07 1.363250409771533549e-11 3.761981047239428883e-05
1.581000000000000021e-09 1.470619631082054101e-06 5.726014178088476303e-11 6.095350986710739404e-05
3.971999999999999932e-09 3.694861084648016046e-06 2.210019573374265380e-10 8.628023653304385055e-05
5.000000000000000105e-09 4.651201787816927976e-06 3.071485916280120014e-10 9.387863480799757518e-05
9.975999999999999465e-09 9.280587964640925786e-06 8.385361004129998845e-10 1.356922228656245837e-04
1.989999999999999952e-08 1.851419242998081003e-05 2.287763168863418088e-09 1.782101978513718314e-04
3.972999999999999908e-08 3.696699295748789187e-05 6.061583099087538954e-09 2.308134738384234820e-04
7.925999999999999637e-08 7.375765469301719828e-05 1.575347858094044765e-08 2.960532096713864875e-04
1.580999999999999930e-07 1.471491184379128891e-04 3.910429618672550719e-08 3.402859755131850544e-04
1.991000000000000027e-07 1.853209783927820692e-04 5.252045687899177454e-08 3.626488188833278743e-04
3.155999999999999938e-07 2.938002528823880299e-04 9.730770378831954314e-08 4.630767356912104081e-04
5.000999999999999849e-07 4.656344063839075714e-04 1.837494945860225819e-07 5.430301232045120323e-04
6.295999999999999732e-07 5.862651417037388971e-04 2.503103884558263872e-07 5.605192962670089638e-04
9.666999999999999941e-07 9.003386739730535665e-04 4.324450868778576936e-07 5.993081670211623108e-04
1.531999999999999901e-06 1.427170885631398036e-03 7.780217275717420968e-07 7.125938556504039095e-04
2.506999999999999883e-06 2.336134972129507662e-03 1.471005394641589826e-06 8.121876172121876309e-04
3.974000000000000407e-06 3.704315759716615697e-03 2.695705763844323844e-06 9.780674166779417152e-04
4.830000000000000343e-06 4.502887798316278223e-03 3.503988717694660908e-06 1.046253037768318664e-03
6.080999999999999885e-06 5.670217999231269741e-03 4.731126407333307547e-06 1.056224360839501646e-03
7.930000000000000308e-06 7.396012414119570652e-03 6.599662989063778187e-06 1.109203753630785610e-03
9.982000000000000313e-06 9.311815711689977113e-03 8.879881089227186733e-06 1.271216815433141075e-03
1.256999999999999993e-05 1.172874412604260098e-02 1.207676739913533738e-05 1.374195438212825332e-03
1.521999999999999997e-05 1.420427250933824909e-02 1.547541302213394990e-05 1.371610497379100249e-03
1.991000000000000080e-05 1.858690797761085312e-02 2.160710455847765458e-05 1.426578142835871997e-03
2.506999999999999883e-05 2.341050104039446925e-02 2.908031724375689851e-05 1.672007475975408053e-03
2.790999999999999875e-05 2.606604784714952258e-02 3.357009132255487721e-05 1.709425557744154774e-03
3.806999999999999973e-05 3.556967988784798945e-02 4.986781576435106434e-05 1.720407281314112165e-03
5.063000000000000145e-05 4.732434580343149871e-02 7.073400252905581275e-05 1.829889149838781265e-03
6.592000000000000583e-05 6.164112392498975052e-02 9.765037643900635188e-05 1.930242980462695823e-03
8.433000000000000066e-05 7.888776783401378612e-02 1.317235490470395893e-04 2.021055815200022837e-03
1.062000000000000064e-04 9.938561165478684845e-02 1.740088341640037047e-04 2.104789529260958983e-03
1.321000000000000126e-04 1.236720406455826121e-01 2.260189757651373944e-04 2.178291718403657477e-03
1.623999999999999901e-04 1.520974545104751274e-01 2.888169908545388338e-04 2.240170365918073281e-03
1.689999999999999879e-04 1.582907717069566844e-01 3.027354772999506964e-04 2.254509350360745651e-03
1.758999999999999930e-04 1.647661861691531171e-01 3.173785841705756782e-04 2.268169273277113179e-03
1.830000000000000029e-04 1.714298948183871907e-01 3.325196584577469103e-04 2.276170334580628063e-03
1.901999999999999882e-04 1.781880600978280049e-01 3.479577791899843742e-04 2.292561569242367037e-03
1.977000000000000079e-04 1.852284385240466902e-01 3.641242634600037713e-04 2.299943765467868384e-03
2.054000000000000053e-04 1.924572004474696396e-01 3.808304060475003897e-04 2.322187632288155723e-03
2.079000000000000119e-04 1.948043378760714872e-01 3.864137987380476553e-04 2.435429768083530178e-03
2.081999999999999921e-04 1.950859988578999005e-01 3.870314100985603909e-04 1.950065624557156818e-03
2.090999999999999868e-04 1.959309855029948977e-01 3.881261957135444685e-04 6.411875526909013856e-04
2.159999999999999919e-04 2.024093317906446865e-01 3.940874488768042125e-04 1.199166870571831411e-03
2.231000000000000019e-04 2.090756740932291913e-01 4.013938420547467825e-04 9.928616047829054436e-04
2.311000000000000066e-04 2.165873044433437034e-01 4.085241694843774404e-04 9.056166966301716637e-04
2.401000000000000085e-04 2.250381721984245909e-01 4.159700687886608468e-04 8.565463878902855599e-04
2.500000000000000052e-04 2.343344406330727658e-01 4.237602369176299592e-04 8.194318812157330018e-04
2.642999999999999733e-04 2.477629128650125634e-01 4.345596643180389446e-04 7.890063723638815647e-04
3.052999999999999941e-04 2.862671839140227270e-01 4.644058706720978241e-04 7.612775562167708662e-04
3.533000000000000224e-04 3.313503829113090826e-01 4.987577676308450197e-04 7.626578558207241024e-04
4.075999999999999871e-04 3.823564017794535141e-01 5.381334366106255759e-04 7.813048116943254948e-04
4.679999999999999915e-04 4.390986251953180042e-01 5.832692638200615834e-04 8.096035963157804938e-04
5.341000000000000261e-04 5.012024644415256081e-01 6.346556894078133086e-04 8.452514814113673558e-04
6.059000000000000366e-04 5.686690698184251325e-01 6.930641302632923034e-04 8.862253587289389486e-04
7.661000000000000275e-04 7.192254882508629654e-01 8.328184776562496576e-04 9.702780530519144065e-04
1.262000000000000101e-03 1.185459127778160093e+00 1.338484980802662205e-03 1.198863597978450275e-03
1.894999999999999983e-03 1.780909071169781921e+00 2.123481960401060308e-03 1.437771491635827115e-03
2.673000000000000029e-03 2.513147344746868850e+00 3.261860252001994032e-03 1.671524566936786766e-03
3.605999999999999830e-03 3.391736073717691369e+00 4.828136641022434151e-03 1.893900408978071038e-03
4.709999999999999777e-03 4.431905410739045870e+00 6.903512974832482635e-03 2.096551352830673849e-03
7.496000000000000059e-03 7.058993649504918366e+00 1.289742191321638018e-02 2.466596387205546859e-03
1.119999999999999989e-02 1.055540362104863661e+01 2.212077014004794340e-02 2.809304433764861584e-03
1.600000000000000033e-02 1.509117352747679952e+01 3.559566804390756900e-02 3.132325055719984222e-03
2.206999999999999934e-02 2.083310616724802244e+01 5.457322122755020599e-02 3.477840948757840792e-03
2.947999999999999926e-02 2.785007348564149154e+01 8.049103664263126956e-02 3.909302116317729670e-03
4.268000000000000266e-02 4.036707211535221518e+01 1.353887601042819133e-01 4.862066536253286525e-03
6.219999999999999835e-02 5.891246509830522626e+01 2.419691225623893105e-01 6.630786177272363080e-03
7.316999999999999893e-02 6.935151695866235855e+01 3.161896974764099033e-01 7.588671314871411888e-03
7.595999999999999974e-02 7.200836722020332559e+01 3.371250777904805096e-01 8.170805199905812125e-03
7.685877551020407761e-02 7.286441677414137530e+01 3.442016837523961814e-01 8.362355958067117095e-03
7.775755102040816935e-02 7.372055002877984009e+01 3.514407096101673234e-01 8.548615682988376652e-03
7.865632653061224722e-02 7.457676786881695818e+01 3.588377721089217598e-01 8.729836064937724835e-03
7.955510204081632508e-02 7.543307110986023645e+01 3.663887020853236476e-01 8.906268794183319973e-03
8.045387755102040295e-02 7.628946050318745620e+01 3.740895445217135018e-01 9.078165560993304781e-03
8.135265306122449469e-02 7.714593674029593728e+01 3.819365586076254315e-01 9.245778055635830647e-03
8.225142857142857256e-02 7.800250045725100279e+01 3.899262178079344054e-01 9.409357968379040288e-03
8.315020408163265042e-02 7.885915223884516934e+01 3.980552099369546459e-01 9.569156989491088561e-03
8.404897959183672829e-02 7.971589262257892017e+01 4.063204372378669826e-01 9.725426809240114712e-03
8.494775510204082003e-02 8.057272210247094790e+01 4.147190164669140588e-01 9.878419117894277068e-03
8.584653061224489790e-02 8.142964113270946314e+01 4.232482789818503011e-01 1.002838560572171488e-02
8.674530612244897576e-02 8.228665013114988369e+01 4.319057708341876856e-01 1.017557796299058126e-02
8.764408163265305363e-02 8.314374948267033005e+01 4.406892528648182483e-01 1.032024787996902067e-02
8.854285714285714537e-02 8.400093954238876393e+01 4.495967008026419687e-01 1.046264704692518449e-02
8.944163265306122323e-02 8.485822063875157539e+01 4.586263053658647393e-01 1.060302715412721718e-02
9.034040816326530110e-02 8.571559307649890513e+01 4.677764723656729351e-01 1.074163989184326665e-02
9.123918367346939284e-02 8.657305713951248549e+01 4.770458228120196265e-01 1.087873695034148255e-02
9.213795918367347071e-02 8.743061309355272215e+01 4.864331930212959509e-01 1.101457001989001629e-02
9.303673469387754857e-02 8.828826118889016072e+01 4.959376347256899131e-01 1.114939079075700883e-02
9.393551020408162644e-02 8.914600166283611316e+01 5.055584151840613050e-01 1.128345095321061156e-02
9.483428571428570431e-02 9.000383474217693447e+01 5.152950172941922480e-01 1.141700219751896894e-02
9.573306122448979605e-02 9.086176064551841591e+01 5.251471397062952295e-01 1.155029621395023930e-02
9.663183673469387391e-02 9.171977958554194288e+01 5.351146969376853191e-01 1.168358469277255667e-02
9.753061224489795178e-02 9.257789177117830093e+01 5.451978194885477302e-01 1.181711932425407764e-02
9.842938775510204352e-02 9.343609740970241262e+01 5.553968539587478270e-01 1.195115179866295015e-02
9.932816326530612139e-02 9.429439670875291313e+01 5.657123631656556517e-01 1.208593380626731689e-02
1.002269387755101993e-01 9.515278987827863943e+01 5.761451262629749825e-01 1.222171703733533274e-02
1.011257142857142910e-01 9.601127713241777428e+01 5.866961388605805849e-01 1.235875318213514040e-02
1.020244897959183689e-01 9.686985869131029858e+01 5.973666131453888584e-01 1.249729393093488780e-02
1.029232653061224467e-01 9.772853478284790185e+01 6.081579780033015137e-01 1.263759097400272112e-02
1.038220408163265246e-01 9.858730564436389443e+01 6.190718791422740175e-01 1.277989600160679522e-02
1.047208163265306025e-01 9.944617152426543782e+01 6.301101792165788584e-01 1.292446070401525281e-02
1.056195918367346942e-01 1.003051326836114185e+02 6.412749579523437937e-01 1.307153677149624355e-02
1.065183673469387721e-01 1.011641893976367044e+02 6.525685122744592226e-01 1.322137589431791709e-02
1.074171428571428499e-01 1.020233419572270321e+02 6.639933564349620454e-01 1.337422976274841788e-02
1.083159183673469417e-01 1.028825906703449391e+02 6.755522221430110275e-01 1.353035006705589210e-02
1.092146938775510195e-01 1.037419358634094380e+02 6.872480586965823424e-01 1.368998849750849463e-02
1.101134693877550974e-01 1.046013778826321072e+02 6.990840331160264043e-01 1.385339674437436816e-02
1.110122448979591891e-01 1.054609170953098385e+02 7.110635302796294299e-01 1.402082649792166062e-02
1.119110204081632531e-01 1.063205538910770116e+02 7.231901530613391582e-01 1.419252944841851993e-02
1.128097959183673449e-01 1.071802886831188459e+02 7.354677224708235928e-01 1.436875728613310095e-02
1.137085714285714227e-01 1.080401219093470075e+02 7.479002777960300774e-01 1.454976170133353945e-02
1.146073469387755006e-01 1.089000540335390639e+02 7.604920767484351085e-01 1.473579438428799376e-02
1.155061224489795924e-01 1.097600855464435625e+02 7.732475956111688475e-01 1.492710702526461007e-02
1.164048979591836702e-01 1.106202169668518991e+02 7.861715293902132862e-01 1.512395131453152936e-02
1.173036734693877481e-01 1.114804488426378413e+02 7.992687919688805653e-01 1.532657894235690300e-02
1.182024489795918398e-01 1.123407817517672100e+02 8.125445162657776166e-01 1.553524159900888588e-02
1.191012244897959177e-01 1.132012163032769649e+02 8.260040543964768389e-01 1.575019097475561722e-02
1.199999999999999956e-01 1.140617531382268055e+02 8.396529778391166321e-01 1.597167875986524668e-02
1.213286506096503681e-01 1.153340649148224912e+02 8.601885280141295942e-01 1.630898471434281613e-02
1.226573012193007406e-01 1.166066039490800819e+02 8.811589068585542472e-01 1.664931666931850074e-02
1.239859518289511131e-01 1.178793725111291906e+02 9.025681157424840784e-01 1.699260830554791268e-02
1.253146024386014856e-01 1.191523728648936924e+02 9.244200753102085333e-01 1.733879238731948769e-02
1.266432530482518581e-01 1.204256072674265567e+02 9.467186242584872957e-01 1.768780074232783120e-02
1.279719036579022307e-01 1.216990779682598145e+02 9.694675180853200569e-01 1.803956424124658620e-02
1.293005542675526032e-01 1.229727872087683522e+02 9.926704278087844502e-01 1.839401277703488560e-02
1.306292048772029757e-01 1.242467372215465531e+02 1.016330938655551686e+00 1.875107524400523515e-02
1.319578554868533482e-01 1.255209302297967611e+02 1.040452548718729942e+00 1.911067951668313919e-02
1.332865060965037207e-01 1.267953684467287161e+02 1.065038667584715659e+00 1.947275242848457016e-02
1.346151567061540932e-01 1.280700540749693630e+02 1.090092614928773518e+00 1.983721975023755579e-02
1.359438073158044658e-01 1.293449893059812439e+02 1.115617619079091183e+00 2.020400616857354406e-02
1.372724579254548383e-01 1.306201763194903265e+02 1.141616815549093111e+00 2.057303526421196127e-02
1.386011085351052108e-01 1.318956172829207674e+02 1.168093245537821456e+00 2.094422949016063948e-02
1.399297591447555555e-01 1.331713143508377755e+02 1.195049854398225531e+00 2.131751014985514697e-02
1.412584097544059281e-01 1.344472696643958329e+02 1.222489490073229268e+00 2.169279737525731458e-02
1.425870603640563006e-01 1.357234853507938794e+02 1.250414901499464992e+00 2.207001010493414572e-02
1.439157109737066731e-01 1.369999635227350439e+02 1.278828736978603997e+00 2.244906606213657729e-02
1.452443615833570456e-01 1.382767062778912361e+02 1.307733542516223091e+00 2.282988173289761044e-02
1.465730121930074181e-01 1.395537156983727414e+02 1.337131760128180691e+00 2.321237234416790446e-02
1.479016628026577906e-01 1.408309938501999454e+02 1.367025726114498241e+00 2.359645184200754794e-02
1.492303134123081632e-01 1.421085427827804608e+02 1.397417669300766274e+00 2.398203286985089652e-02
1.505589640219585357e-01 1.433863645283874462e+02 1.428309709247114867e+00 2.436902674686239334e-02
1.518876146316089082e-01 1.446644611016408817e+02 1.459703854424817315e+00 2.475734344639928669e-02
1.532162652412592807e-01 1.459428344989912603e+02 1.491602000360609637e+00 2.514689157459845670e-02
1.545449158509096532e-01 1.472214866982043304e+02 1.524005927748839806e+00 2.553757834910284560e-02
1.558735664605600257e-01 1.485004196578479423e+02 1.556917300531574400e+00 2.592930957794385358e-02
1.572022170702103983e-01 1.497796353167790357e+02 1.590337663946817637e+00 2.632198963859481641e-02
1.585308676798607708e-01 1.510591355936322771e+02 1.624268442545016455e+00 2.671552145721153154e-02
1.598595182895111433e-01 1.523389223863082975e+02 1.658710938174047911e+00 2.710980648807479951e-02
1.611881688991615158e-01 1.536189975714620459e+02 1.693666327932906723e+00 2.750474469325020141e-02
1.625168195088118883e-01 1.548993630039918799e+02 1.729135662094330783e+00 2.790023452248061031e-02
1.638454701184622608e-01 1.561800205165278328e+02 1.765119861996626183e+00 2.829617289332597013e-02
1.651741207281126333e-01 1.574609719189180623e+02 1.801619717904974660e+00 2.869245517156594760e-02
1.665027713377630059e-01 1.587422189977170603e+02 1.838635886842526324e+00 2.908897515188054242e-02
1.678314219474133506e-01 1.600237635156698275e+02 1.876168890391603394e+00 2.948562503882332445e-02
1.691600725570637231e-01 1.613056072111977528e+02 1.914219112465370021e+00 2.988229542810358699e-02
1.704887231667140957e-01 1.625877517978801734e+02 1.952786797050326095e+00 3.027887528819209542e-02
1.718173737763644682e-01 1.638701989639366445e+02 1.991872045920036527e+00 3.067525194226633500e-02
1.731460243860148407e-01 1.651529503717068508e+02 2.031474816320502530e+00 3.107131105051138403e-02
1.744746749956652132e-01 1.664360076571273908e+02 2.071594918627619464e+00 3.146693659279197613e-02
1.758033256053155857e-01 1.677193724292084482e+02 2.112232013977191958e+00 3.186201085171271041e-02
1.771319762149659582e-01 1.690030462695065978e+02 2.153385611867991933e+00 3.225641439608267075e-02
1.784606268246163308e-01 1.702870307315965590e+02 2.195055067738381549e+00 3.265002606480174596e-02
1.797892774342667033e-01 1.715713273405404777e+02 2.237239580517044413e+00 3.304272295118584196e-02
1.811179280439170758e-01 1.728559375923529444e+02 2.279938190148391275e+00 3.343438038774923515e-02
1.824465786535674483e-01 1.741408629534662680e+02 2.323149775093245495e+00 3.382487193146170579e-02
1.837752292632178208e-01 1.754261048601908612e+02 2.366873049805429119e+00 3.421406934949978995e-02
1.851038798728681933e-01 1.767116647181739495e+02 2.411106562184909041e+00 3.460184260551114194e-02
2.629589027326055817e-01 2.554496726597814700e+02 2.872714007860817276e+01 5.945677092073694547e-01
3.408139255923429700e-01 3.458604472777852834e+02 6.967057184372981737e+01 3.356571308446102408e-01
4.186689484520803584e-01 4.431073314158934409e+02 8.872127849984295267e+01 6.309263249502901350e-02
4.965239713118177467e-01 5.426000944123989029e+02 9.554328769729261239e+01 7.399770930325785812e-02
5.743789941715551350e-01 6.432542696270313627e+02 1.035425986609884319e+02 8.490278611148668886e-02
6.522340170312925789e-01 7.450736749756558766e+02 1.127448902602478853e+02 9.580786291971554736e-02
7.300890398910298007e-01 8.480643209138772818e+02 1.231761876229913213e+02 1.067129397279443642e-01
8.079440627507672446e-01 9.522337402626683343e+02 1.348628828789121314e+02 1.176180165361732088e-01
8.857990856105046884e-01 1.057590581003520811e+03 1.478317516011426846e+02 1.285230933444020396e-01
9.636541084702421323e-01 1.164144344831536273e+03 1.621099665105564327e+02 1.394281701526308981e-01
1.041509131329979354e+00 1.271905211850619480e+03 1.777251093711734313e+02 1.503332469608597011e-01
1.119364154189716798e+00 1.380883918850556256e+03 1.947051816549858358e+02 1.612383237690885596e-01
1.197219177049454242e+00 1.491091672337626960e+03 2.130786143512918045e+02 1.721434005773174181e-01
1.275074199909191464e+00 1.602540084908003564e+03 2.328742771723298119e+02 1.830484773855462488e-01
1.352929222768928907e+00 1.715241127771462061e+03 2.541214873293154710e+02 1.939535541937750796e-01
1.430784245628666351e+00 1.829207094737703301e+03 2.768500180024143447e+02 2.048586310020039103e-01
1.508639268488403795e+00 1.944458564828529688e+03 3.014742108317037719e+02 2.223540186441366473e-01
1.586494291348141239e+00 2.061111477689528328e+03 3.323258372701269536e+02 3.059185977315784788e-01
1.664349314207878461e+00 2.179518268746970989e+03 3.735491227627186959e+02 3.894831768190201160e-01
1.742204337067615905e+00 2.300092496320136888e+03 4.256165474300203755e+02 4.730477559064619753e-01
1.820059359927353348e+00 2.423233836908931607e+03 4.890973307654593327e+02 5.566123349939038345e-01
1.897914382787090570e+00 2.549333988138297173e+03 5.646563293691318677e+02 6.401769140813454717e-01
1.975769405646828014e+00 2.678781589752989930e+03 6.530547351515961054e+02 7.237414931687873310e-01
2.053624428506565458e+00 2.811966422275831974e+03 7.551522801129457321e+02 8.073060722562291902e-01
