# density  energy_density  pressure   sound_speed_squared  [All in nuclear units]
2.720000000000000022e-14 2.529924618736292620e-11 1.061056609100270887e-19 3.766610435412189122e-08
1.269999999999999890e-13 1.181251617980081254e-10 4.870113551826584858e-18 6.497781477172163475e-08
6.929999999999999754e-13 6.445728594625782745e-10 1.018299070687946017e-16 3.033770597342807186e-07
6.295000000000000137e-12 5.855111460395753757e-09 5.487150723824490656e-15 1.763710043904196507e-06
1.581000000000000150e-11 1.470523320212576141e-08 2.904239460150760759e-14 3.559434472327477622e-06
3.971999999999999958e-11 3.694456170323160790e-08 1.439340266754906811e-13 6.772854871245677111e-06
9.975999999999999982e-11 9.278976412613005154e-08 6.812143616221268841e-13 1.246890511177539320e-05
2.505999999999999928e-10 2.330928829758143313e-07 3.107749196951638608e-12 2.212095130576091967e-05
6.294000000000000186e-10 5.854398883216247602e-07 1.363250409771533549e-11 3.761981047239428883e-05
1.581000000000000021e-09 1.470619631082054101e-06 5.726014178088476303e-11 6.095350986710739404e-05
3.971999999999999932e-09 3.694861084648016046e-06 2.210019573374265380e-10 8.628023653304385055e-05
5.000000000000000105e-09 4.651201787816927976e-06 3.071485916280120014e-10 9.387863480799757518e-05
9.975999999999999465e-09 9.280587964640925786e-06 8.385361004129998845e-10 1.356922228656245837e-04
1.989999999999999952e-08 1.851419242998081003e-05 2.287763168863418088e-09 1.782101978513718314e-04
3.972999999999999908e-08 3.696699295748789187e-05 6.061583099087538954e-09 2.308134738384234820e-04
7.925999999999999637e-08 7.375765469301719828e-05 1.575347858094044765e-08 2.960532096713864875e-04
1.580999999999999930e-07 1.471491184379128891e-04 3.910429618672550719e-08 3.402859755131850544e-04
1.991000000000000027e-07 1.853209783927820692e-04 5.252045687899177454e-08 3.626488188833278743e-04
3.155999999999999938e-07 2.938002528823880299e-04 9.730770378831954314e-08 4.630767356912104081e-04
5.000999999999999849e-07 4.656344063839075714e-04 1.837494945860225819e-07 5.430301232045120323e-04
6.295999999999999732e-07 5.862651417037388971e-04 2.503103884558263872e-07 5.605192962670089638e-04
9.666999999999999941e-07 9.003386739730535665e-04 4.324450868778576936e-07 5.993081670211623108e-04
1.531999999999999901e-06 1.427170885631398036e-03 7.780217275717420968e-07 7.125938556504039095e-04
2.506999999999999883e-06 2.336134972129507662e-03 1.471005394641589826e-06 8.121876172121876309e-04
3.974000000000000407e-06 3.704315759716615697e-03 2.695705763844323844e-06 9.780674166779417152e-04
4.830000000000000343e-06 4.502887798316278223e-03 3.503988717694660908e-06 1.046253037768318664e-03
6.080999999999999885e-06 5.670217999231269741e-03 4.731126407333307547e-06 1.056224360839501646e-03
7.930000000000000308e-06 7.396012414119570652e-03 6.599662989063778187e-06 1.109203753630785610e-03
9.982000000000000313e-06 9.311815711689977113e-03 8.879881089227186733e-06 1.271216815433141075e-03
1.256999999999999993e-05 1.172874412604260098e-02 1.207676739913533738e-05 1.374195438212825332e-03
1.521999999999999997e-05 1.420427250933824909e-02 1.547541302213394990e-05 1.371610497379100249e-03
1.991000000000000080e-05 1.858690797761085312e-02 2.160710455847765458e-05 1.426578142835871997e-03
2.506999999999999883e-05 2.341050104039446925e-02 2.908031724375689851e-05 1.672007475975408053e-03
2.790999999999999875e-05 2.606604784714952258e-02 3.357009132255487721e-05 1.709425557744154774e-03
3.806999999999999973e-05 3.556967988784798945e-02 4.986781576435106434e-05 1.720407281314112165e-03
5.063000000000000145e-05 4.732434580343149871e-02 7.073400252905581275e-05 1.829889149838781265e-03
6.592000000000000583e-05 6.164112392498975052e-02 9.765037643900635188e-05 1.930242980462695823e-03
8.433000000000000066e-05 7.888776783401378612e-02 1.317235490470395893e-04 2.021055815200022837e-03
1.062000000000000064e-04 9.938561165478684845e-02 1.740088341640037047e-04 2.104789529260958983e-03
1.321000000000000126e-04 1.236720406455826121e-01 2.260189757651373944e-04 2.178291718403657477e-03
1.623999999999999901e-04 1.520974545104751274e-01 2.888169908545388338e-04 2.240170365918073281e-03
1.689999999999999879e-04 1.582907717069566844e-01 3.027354772999506964e-04 2.254509350360745651e-03
1.758999999999999930e-04 1.647661861691531171e-01 3.173785841705756782e-04 2.268169273277113179e-03
1.830000000000000029e-04 1.714298948183871907e-01 3.325196584577469103e-04 2.276170334580628063e-03
1.901999999999999882e-04 1.781880600978280049e-01 3.479577791899843742e-04 2.292561569242367037e-03
1.977000000000000079e-04 1.852284385240466902e-01 3.641242634600037713e-04 2.299943765467868384e-03
2.054000000000000053e-04 1.924572004474696396e-01 3.808304060475003897e-04 2.322187632288155723e-03
2.079000000000000119e-04 1.948043378760714872e-01 3.864137987380476553e-04 2.435429768083530178e-03
2.081999999999999921e-04 1.950859988578999005e-01 3.870314100985603909e-04 1.950065624557156818e-03
2.090999999999999868e-04 1.959309855029948977e-01 3.881261957135444685e-04 6.411875526909013856e-04
2.159999999999999919e-04 2.024093317906446865e-01 3.940874488768042125e-04 1.199166870571831411e-03
2.231000000000000019e-04 2.090756740932291913e-01 4.013938420547467825e-04 9.928616047829054436e-04
2.311000000000000066e-04 2.165873044433437034e-01 4.085241694843774404e-04 9.056166966301716637e-04
2.401000000000000085e-04 2.250381721984245909e-01 4.159700687886608468e-04 8.565463878902855599e-04
2.500000000000000052e-04 2.343344406330727658e-01 4.237602369176299592e-04 8.194318812157330018e-04
2.642999999999999733e-04 2.477629128650125634e-01 4.345596643180389446e-04 7.890063723638815647e-04
3.052999999999999941e-04 2.862671839140227270e-01 4.644058706720978241e-04 7.612775562167708662e-04
3.533000000000000224e-04 3.313503829113090826e-01 4.987577676308450197e-04 7.626578558207241024e-04
4.075999999999999871e-04 3.823564017794535141e-01 5.381334366106255759e-04 7.813048116943254948e-04
4.679999999999999915e-04 4.390986251953180042e-01 5.832692638200615834e-04 8.096035963157804938e-04
5.341000000000000261e-04 5.012024644415256081e-01 6.346556894078133086e-04 8.452514814113673558e-04
6.059000000000000366e-04 5.686690698184251325e-01 6.930641302632923034e-04 8.862253587289389486e-04
7.661000000000000275e-04 7.192254882508629654e-01 8.328184776562496576e-04 9.702780530519144065e-04
1.262000000000000101e-03 1.185459127778160093e+00 1.338484980802662205e-03 1.198863597978450275e-03
1.894999999999999983e-03 1.780909071169781921e+00 2.123481960401060308e-03 1.437771491635827115e-03
2.673000000000000029e-03 2.513147344746868850e+00 3.261860252001994032e-03 1.671524566936786766e-03
3.605999999999999830e-03 3.391736073717691369e+00 4.828136641022434151e-03 1.893900408978071038e-03
4.709999999999999777e-03 4.431905410739045870e+00 6.903512974832482635e-03 2.096551352830673849e-03
7.496000000000000059e-03 7.058993649504918366e+00 1.289742191321638018e-02 2.466596387205546859e-03
1.119999999999999989e-02 1.055540362104863661e+01 2.212077014004794340e-02 2.809304433764861584e-03
1.600000000000000033e-02 1.509117352747679952e+01 3.559566804390756900e-02 3.132325055719984222e-03
2.206999999999999934e-02 2.083310616724802244e+01 5.457322122755020599e-02 3.477840948757840792e-03
2.947999999999999926e-02 2.785007348564149154e+01 8.049103664263126956e-02 3.909302116317729670e-03
4.268000000000000266e-02 4.036707211535221518e+01 1.353887601042819133e-01 4.862066536253286525e-03
6.219999999999999835e-02 5.891246509830522626e+01 2.419691225623893105e-01 6.630786177272363080e-03
7.316999999999999893e-02 6.935151695866235855e+01 3.161896974764099033e-01 7.588671314871411888e-03
7.595999999999999974e-02 7.200836722020332559e+01 3.371250777904805096e-01 8.170805199905812125e-03
7.685877551020407761e-02 7.286441676012810831e+01 3.441992856416682400e-01 8.356753767183497036e-03
7.775755102040816935e-02 7.372054993614234775e+01 3.514296212720500190e-01 8.533918773318608514e-03
7.865632653061224722e-02 7.457676754455772539e+01 3.588088530915916619e-01 8.702888397394095699e-03
7.955510204081632508e-02 7.543307028369886780e+01 3.663302505733279091e-01 8.864250818492926814e-03
8.045387755102040295e-02 7.628945876288690897e+01 3.739875844334745736e-01 9.018594215698056207e-03
8.135265306122449469e-02 7.714593351102399765e+01 3.817751268259904629e-01 9.166506768092443427e-03
8.225142857142857256e-02 7.800249498479999488e+01 3.896876515494646642e-01 9.308576654759044555e-03
8.315020408163265042e-02 7.885914357654364437e+01 3.977204342644472534e-01 9.445392054780822610e-03
8.404897959183672829e-02 7.971587962173595088e+01 4.058692527195595923e-01 9.577541147240728470e-03
8.494775510204082003e-02 8.057270340620480908e+01 4.141303869849324859e-01 9.705612111221733826e-03
8.584653061224489790e-02 8.142961517301762342e+01 4.225006196917097667e-01 9.830193125806780882e-03
8.674530612244897576e-02 8.228661512908783493e+01 4.309772362765388332e-01 9.951872370078839597e-03
8.764408163265305363e-02 8.314370345150997821e+01 4.395580252301325985e-01 1.007123802312086779e-02
8.854285714285714537e-02 8.400088029363755027e+01 4.482412783491501740e-01 1.018887826401582326e-02
8.944163265306122323e-02 8.485814579091677956e+01 4.570257909907851079e-01 1.030538127184665691e-02
9.034040816326530110e-02 8.571550006648817543e+01 4.659108623295932228e-01 1.042133522569633694e-02
9.123918367346939284e-02 8.657294323656786617e+01 4.748962956162142146e-01 1.053732830464781771e-02
9.213795918367347071e-02 8.743047541561917058e+01 4.839823984377666366e-01 1.065394868778405876e-02
9.303673469387754857e-02 8.828809672132551611e+01 4.931699829798092405e-01 1.077178455418801792e-02
9.393551020408162644e-02 8.914580727937295990e+01 5.024603662898633472e-01 1.089142408294265472e-02
9.483428571428570431e-02 9.000360722805287139e+01 5.118553705425956668e-01 1.101345545313092353e-02
9.573306122448979605e-02 9.086149672269185373e+01 5.213573233068528046e-01 1.113846684383579082e-02
9.663183673469387391e-02 9.171947593991873759e+01 5.309690578148255069e-01 1.126704643414020920e-02
9.753061224489795178e-02 9.257754508177445985e+01 5.406939132337084120e-01 1.139978240312713997e-02
9.842938775510204352e-02 9.343570437967336773e+01 5.505357349402928424e-01 1.153726292987953747e-02
9.932816326530612139e-02 9.429395409822252816e+01 5.604988747990096165e-01 1.168007619348036819e-02
1.002269387755101993e-01 9.515229453890496814e+01 5.705881914440071867e-01 1.182881037301257952e-02
1.011257142857142910e-01 9.601072604363318419e+01 5.808090505659135871e-01 1.198405364755914491e-02
1.020244897959183689e-01 9.686924899817955747e+01 5.911673252039958415e-01 1.214639419620300656e-02
1.029232653061224467e-01 9.772786383548793765e+01 6.016693960444895461e-01 1.231642019802712922e-02
1.038220408163265246e-01 9.858657103887203732e+01 6.123221517259230806e-01 1.249471983211447937e-02
1.047208163265306025e-01 9.944537114510626452e+01 6.231329891523186282e-01 1.268188127754800443e-02
1.056195918367346942e-01 1.003042647474130149e+02 6.341098138151989305e-01 1.287849271341067262e-02
1.065183673469387721e-01 1.011632524983504169e+02 6.452610401253757733e-01 1.308514231878543307e-02
1.074171428571428499e-01 1.020223351126066973e+02 6.565955917555456045e-01 1.330241827275524882e-02
1.083159183673469417e-01 1.028815133697023327e+02 6.681229019947529935e-01 1.353090875440308288e-02
1.092146938775510195e-01 1.037407881166072485e+02 6.798529141158299316e-01 1.377120194281188786e-02
1.101134693877550974e-01 1.046001602702732214e+02 6.917960817569557275e-01 1.402388601706461985e-02
1.110122448979591891e-01 1.054596308200882930e+02 7.039633693185155527e-01 1.428954915624424706e-02
1.119110204081632531e-01 1.063192008302535640e+02 7.163662523764756651e-01 1.456877953943371343e-02
1.128097959183673449e-01 1.071788714420884503e+02 7.290167181135266405e-01 1.486216534571599759e-02
1.137085714285714227e-01 1.080386438762647714e+02 7.419272657692697059e-01 1.517029475417404003e-02
1.146073469387755006e-01 1.088985194349741903e+02 7.551109071107670045e-01 1.549375594389080374e-02
1.155061224489795924e-01 1.097584995040319882e+02 7.685811669247901712e-01 1.583313709394925869e-02
1.164048979591836702e-01 1.106185855549185248e+02 7.823520835331385648e-01 1.618902638343235056e-02
1.173036734693877481e-01 1.114787791467620792e+02 7.964382093324267053e-01 1.656201199142303890e-02
1.182024489795918398e-01 1.123390819282648323e+02 8.108546113597584482e-01 1.695268209700429712e-02
1.191012244897959177e-01 1.131994956395755452e+02 8.256168718857368471e-01 1.736162487925905704e-02
1.199999999999999956e-01 1.140600221141089179e+02 8.407410890362837508e-01 1.778942851727029900e-02
1.214731015232888983e-01 1.154706827061655332e+02 8.663542796263661305e-01 1.852425040696549507e-02
1.229462030465777872e-01 1.168816602653496943e+02 8.930193373165286053e-01 1.927224376830846339e-02
1.244193045698666900e-01 1.182929637116963306e+02 9.207554337805234912e-01 2.003332001621765945e-02
1.258924060931555788e-01 1.197046019804586905e+02 9.495816478044077913e-01 2.080738890360503413e-02
1.273655076164444677e-01 1.211165840204771911e+02 9.795169635423935928e-01 2.159435853559273782e-02
1.288386091397333844e-01 1.225289187926025676e+02 1.010580268778419777e+00 2.239413538349717056e-02
1.303117106630222732e-01 1.239416152681728107e+02 1.042790353192796449e+00 2.320662429860331430e-02
1.317848121863111621e-01 1.253546824275387621e+02 1.076165906633319347e+00 2.403172852574465487e-02
1.332579137096000510e-01 1.267681292586356250e+02 1.110725517390264816e+00 2.486934971671116504e-02
1.347310152328889676e-01 1.281819647555998927e+02 1.146487670474728882e+00 2.571938794349671112e-02
1.362041167561778565e-01 1.295961979174268208e+02 1.183470745899789067e+00 2.658174171140456274e-02
1.376772182794667454e-01 1.310108377466684715e+02 1.221693016964011225e+00 2.745630797202344708e-02
1.391503198027556620e-01 1.324258932481680233e+02 1.261172648536827756e+00 2.834298213608731770e-02
1.406234213260445509e-01 1.338413734278300069e+02 1.301927695345360458e+00 2.924165808623174767e-02
1.420965228493334398e-01 1.352572872914250866e+02 1.343976100262279427e+00 3.015222818965620361e-02
1.435696243726223287e-01 1.366736438434245429e+02 1.387335692594297010e+00 3.107458331070535318e-02
1.450427258959112176e-01 1.380904520858673266e+02 1.432024186370939756e+00 3.200861282337606750e-02
1.465158274192001342e-01 1.395077210172539992e+02 1.478059178633244874e+00 3.295420462376103671e-02
1.479889289424890231e-01 1.409254596314687262e+02 1.525458147722047464e+00 3.391124514243615273e-02
1.494620304657779120e-01 1.423436769167275884e+02 1.574238451565562746e+00 3.487961935679959047e-02
1.509351319890668286e-01 1.437623818545504832e+02 1.624417325965948011e+00 3.585921080336931799e-02
1.524082335123557175e-01 1.451815834187570147e+02 1.676011882884576254e+00 3.684990159004554455e-02
1.538813350356446064e-01 1.466012905744846364e+02 1.729039108725765717e+00 3.785157240834399056e-02
1.553544365589334952e-01 1.480215122772276004e+02 1.783515862618699543e+00 3.886410254560526689e-02
1.568275380822224119e-01 1.494422574718966530e+02 1.839458874697314839e+00 3.988736989718544290e-02
1.583006396055113008e-01 1.508635350918973188e+02 1.896884744377927312e+00 4.092125097863186234e-02
1.597737411288001896e-01 1.522853540582267726e+02 1.955809938634400780e+00 4.196562093784921704e-02
1.612468426520891063e-01 1.537077232785877641e+02 2.016250790270641691e+00 4.302035356725846665e-02
1.627199441753779952e-01 1.551306516465199081e+02 2.078223496190243047e+00 4.408532131595273990e-02
1.641930456986668840e-01 1.565541480405456127e+02 2.141744115663113845e+00 4.516039530185312484e-02
1.656661472219557729e-01 1.579782213233320363e+02 2.206828568588906858e+00 4.624544532386663104e-02
1.671392487452446618e-01 1.594028803408673411e+02 2.273492633757108194e+00 4.734033987404950156e-02
1.686123502685335784e-01 1.608281339216495667e+02 2.341751947103635434e+00 4.844494614977714469e-02
1.700854517918224673e-01 1.622539908758901106e+02 2.411621999963805774e+00 4.955913006592334996e-02
1.715585533151113562e-01 1.636804599947289489e+02 2.483118137321563168e+00 5.068275626704985687e-02
1.730316548384002728e-01 1.651075500494609685e+02 2.556255556054822353e+00 5.181568813960808068e-02
1.745047563616891617e-01 1.665352697907755442e+02 2.631049303176831167e+00 5.295778782415389713e-02
1.759778578849780506e-01 1.679636279480053815e+02 2.707514274073460125e+00 5.410891622757674213e-02
1.774509594082669395e-01 1.693926332283855345e+02 2.785665210736298469e+00 5.526893303534360230e-02
1.789240609315558284e-01 1.708222943163245588e+02 2.865516699991489169e+00 5.643769672375865271e-02
1.803971624548447450e-01 1.722526198726822599e+02 2.947083171724216299e+00 5.761506457223887490e-02
1.818702639781336339e-01 1.736836185340582972e+02 3.030378897098760405e+00 5.880089267560625887e-02
1.833433655014225505e-01 1.751152989120887469e+02 3.115417986774082326e+00 5.999503595639629067e-02
1.848164670247114394e-01 1.765476695927511628e+02 3.202214389114832471e+00 6.119734817718318343e-02
1.862895685480003283e-01 1.779807391356777657e+02 3.290781888397777077e+00 6.240768195292143578e-02
1.877626700712892172e-01 1.794145160734752267e+02 3.381134103013552661e+00 6.362588876330366183e-02
1.892357715945781060e-01 1.808490089110524082e+02 3.473284483663731326e+00 6.485181896513415867e-02
1.907088731178670227e-01 1.822842261249552109e+02 3.567246311553150306e+00 6.608532180471819728e-02
1.921819746411559116e-01 1.837201761627071335e+02 3.663032696577466218e+00 6.732624543026557995e-02
2.698925465872547558e-01 2.610136945874008347e+02 1.263864518219182642e+01 1.630840747507328881e-01
3.476031185333536278e-01 3.419505457372793558e+02 2.982022911926181052e+01 2.588419040712002239e-01
4.253136904794524442e-01 4.276708212960164133e+02 5.625363522109144299e+01 3.545997333916675043e-01
5.030242624255513162e-01 5.191794310542463791e+02 9.489972513352446981e+01 4.842420623583130190e-01
5.807348343716501882e-01 6.176471790737753054e+02 1.459358236493875438e+02 5.493690135845581413e-01
6.584454063177490601e-01 7.235964882235489313e+02 2.065874281756331357e+02 5.936304587255128995e-01
7.361559782638479321e-01 8.372468923973219717e+02 2.770211544914914157e+02 6.435516082685178718e-01
8.138665502099468041e-01 9.588888396841612121e+02 3.584850071659911919e+02 6.934727578115228441e-01
8.915771221560456761e-01 1.088859544946154074e+03 4.520204643514210261e+02 7.433939073545278164e-01
9.692876941021445480e-01 1.227531475057103307e+03 5.587467116792569186e+02 7.933150568975327888e-01
1.046998266048243309e+00 1.375310285355062661e+03 6.798659976975369545e+02 8.432362064405377611e-01
1.124708837994342181e+00 1.532633784841216766e+03 8.166693698400131325e+02 8.931573559835427334e-01
1.202419409940441053e+00 1.699969882192319119e+03 9.698084388272220622e+02 9.348264122593056280e-01
1.280129981886539925e+00 1.877710071187270842e+03 1.131926373140160649e+03 8.918270685610830695e-01
1.357840553832638797e+00 2.065333304825418509e+03 1.295016719217059745e+03 8.488277248628606220e-01
1.435551125778737669e+00 2.262258691205030573e+03 1.452569660633329477e+03 7.551801196460440346e-01
1.513261697724836541e+00 2.467357550740371153e+03 1.595672000348920164e+03 6.438669323235481912e-01
1.590972269670935413e+00 2.679315751491827086e+03 1.720062314586692537e+03 5.325537450010522367e-01
1.668682841617034285e+00 2.896826378207512334e+03 1.823582115042423084e+03 4.212405576785563932e-01
1.746393413563133157e+00 3.118614970226963578e+03 1.904519857831383433e+03 3.099273703560605497e-01
1.824103985509232029e+00 3.343537526395262830e+03 1.966446699949603499e+03 2.412704162798391672e-01
1.901814557455330901e+00 3.570867207633720682e+03 2.018925057915196021e+03 2.205608548265255986e-01
1.979525129401429773e+00 3.800254885631106390e+03 2.067130347715112748e+03 1.998512933732120578e-01
2.057235701347528423e+00 4.031515887732591182e+03 2.115224089504775293e+03 2.160068917251744824e-01
