# density  energy_density  pressure   sound_speed_squared  [All in nuclear units]
2.720000000000000022e-14 2.529924618736292620e-11 1.061056609100270887e-19 3.766610435412189122e-08
1.269999999999999890e-13 1.181251617980081254e-10 4.870113551826584858e-18 6.497781477172163475e-08
6.929999999999999754e-13 6.445728594625782745e-10 1.018299070687946017e-16 3.033770597342807186e-07
6.295000000000000137e-12 5.855111460395753757e-09 5.487150723824490656e-15 1.763710043904196507e-06
1.581000000000000150e-11 1.470523320212576141e-08 2.904239460150760759e-14 3.559434472327477622e-06
3.971999999999999958e-11 3.694456170323160790e-08 1.439340266754906811e-13 6.772854871245677111e-06
9.975999999999999982e-11 9.278976412613005154e-08 6.812143616221268841e-13 1.246890511177539320e-05
2.505999999999999928e-10 2.330928829758143313e-07 3.107749196951638608e-12 2.212095130576091967e-05
6.294000000000000186e-10 5.854398883216247602e-07 1.363250409771533549e-11 3.761981047239428883e-05
1.581000000000000021e-09 1.470619631082054101e-06 5.726014178088476303e-11 6.095350986710739404e-05
3.971999999999999932e-09 3.694861084648016046e-06 2.210019573374265380e-10 8.628023653304385055e-05
5.000000000000000105e-09 4.651201787816927976e-06 3.071485916280120014e-10 9.387863480799757518e-05
9.975999999999999465e-09 9.280587964640925786e-06 8.385361004129998845e-10 1.356922228656245837e-04
1.989999999999999952e-08 1.851419242998081003e-05 2.287763168863418088e-09 1.782101978513718314e-04
3.972999999999999908e-08 3.696699295748789187e-05 6.061583099087538954e-09 2.308134738384234820e-04
7.925999999999999637e-08 7.375765469301719828e-05 1.575347858094044765e-08 2.960532096713864875e-04
1.580999999999999930e-07 1.471491184379128891e-04 3.910429618672550719e-08 3.402859755131850544e-04
1.991000000000000027e-07 1.853209783927820692e-04 5.252045687899177454e-08 3.626488188833278743e-04
3.155999999999999938e-07 2.938002528823880299e-04 9.730770378831954314e-08 4.630767356912104081e-04
5.000999999999999849e-07 4.656344063839075714e-04 1.837494945860225819e-07 5.430301232045120323e-04
6.295999999999999732e-07 5.862651417037388971e-04 2.503103884558263872e-07 5.605192962670089638e-04
9.666999999999999941e-07 9.003386739730535665e-04 4.324450868778576936e-07 5.993081670211623108e-04
1.531999999999999901e-06 1.427170885631398036e-03 7.780217275717420968e-07 7.125938556504039095e-04
2.506999999999999883e-06 2.336134972129507662e-03 1.471005394641589826e-06 8.121876172121876309e-04
3.974000000000000407e-06 3.704315759716615697e-03 2.695705763844323844e-06 9.780674166779417152e-04
4.830000000000000343e-06 4.502887798316278223e-03 3.503988717694660908e-06 1.046253037768318664e-03
6.080999999999999885e-06 5.670217999231269741e-03 4.731126407333307547e-06 1.056224360839501646e-03
7.930000000000000308e-06 7.396012414119570652e-03 6.599662989063778187e-06 1.109203753630785610e-03
9.982000000000000313e-06 9.311815711689977113e-03 8.879881089227186733e-06 1.271216815433141075e-03
1.256999999999999993e-05 1.172874412604260098e-02 1.207676739913533738e-05 1.374195438212825332e-03
1.521999999999999997e-05 1.420427250933824909e-02 1.547541302213394990e-05 1.371610497379100249e-03
1.991000000000000080e-05 1.858690797761085312e-02 2.160710455847765458e-05 1.426578142835871997e-03
2.506999999999999883e-05 2.341050104039446925e-02 2.908031724375689851e-05 1.672007475975408053e-03
2.790999999999999875e-05 2.606604784714952258e-02 3.357009132255487721e-05 1.709425557744154774e-03
3.806999999999999973e-05 3.556967988784798945e-02 4.986781576435106434e-05 1.720407281314112165e-03
5.063000000000000145e-05 4.732434580343149871e-02 7.073400252905581275e-05 1.829889149838781265e-03
6.592000000000000583e-05 6.164112392498975052e-02 9.765037643900635188e-05 1.930242980462695823e-03
8.433000000000000066e-05 7.888776783401378612e-02 1.317235490470395893e-04 2.021055815200022837e-03
1.062000000000000064e-04 9.938561165478684845e-02 1.740088341640037047e-04 2.104789529260958983e-03
1.321000000000000126e-04 1.236720406455826121e-01 2.260189757651373944e-04 2.178291718403657477e-03
1.623999999999999901e-04 1.520974545104751274e-01 2.888169908545388338e-04 2.240170365918073281e-03
1.689999999999999879e-04 1.582907717069566844e-01 3.027354772999506964e-04 2.254509350360745651e-03
1.758999999999999930e-04 1.647661861691531171e-01 3.173785841705756782e-04 2.268169273277113179e-03
1.830000000000000029e-04 1.714298948183871907e-01 3.325196584577469103e-04 2.276170334580628063e-03
1.901999999999999882e-04 1.781880600978280049e-01 3.479577791899843742e-04 2.292561569242367037e-03
1.977000000000000079e-04 1.852284385240466902e-01 3.641242634600037713e-04 2.299943765467868384e-03
2.054000000000000053e-04 1.924572004474696396e-01 3.808304060475003897e-04 2.322187632288155723e-03
2.079000000000000119e-04 1.948043378760714872e-01 3.864137987380476553e-04 2.435429768083530178e-03
2.081999999999999921e-04 1.950859988578999005e-01 3.870314100985603909e-04 1.950065624557156818e-03
2.090999999999999868e-04 1.959309855029948977e-01 3.881261957135444685e-04 6.411875526909013856e-04
2.159999999999999919e-04 2.024093317906446865e-01 3.940874488768042125e-04 1.199166870571831411e-03
2.231000000000000019e-04 2.090756740932291913e-01 4.013938420547467825e-04 9.928616047829054436e-04
2.311000000000000066e-04 2.165873044433437034e-01 4.085241694843774404e-04 9.056166966301716637e-04
2.401000000000000085e-04 2.250381721984245909e-01 4.159700687886608468e-04 8.565463878902855599e-04
2.500000000000000052e-04 2.343344406330727658e-01 4.237602369176299592e-04 8.194318812157330018e-04
2.642999999999999733e-04 2.477629128650125634e-01 4.345596643180389446e-04 7.890063723638815647e-04
3.052999999999999941e-04 2.862671839140227270e-01 4.644058706720978241e-04 7.612775562167708662e-04
3.533000000000000224e-04 3.313503829113090826e-01 4.987577676308450197e-04 7.626578558207241024e-04
4.075999999999999871e-04 3.823564017794535141e-01 5.381334366106255759e-04 7.813048116943254948e-04
4.679999999999999915e-04 4.390986251953180042e-01 5.832692638200615834e-04 8.096035963157804938e-04
5.341000000000000261e-04 5.012024644415256081e-01 6.346556894078133086e-04 8.452514814113673558e-04
6.059000000000000366e-04 5.686690698184251325e-01 6.930641302632923034e-04 8.862253587289389486e-04
7.661000000000000275e-04 7.192254882508629654e-01 8.328184776562496576e-04 9.702780530519144065e-04
1.262000000000000101e-03 1.185459127778160093e+00 1.338484980802662205e-03 1.198863597978450275e-03
1.894999999999999983e-03 1.780909071169781921e+00 2.123481960401060308e-03 1.437771491635827115e-03
2.673000000000000029e-03 2.513147344746868850e+00 3.261860252001994032e-03 1.671524566936786766e-03
3.605999999999999830e-03 3.391736073717691369e+00 4.828136641022434151e-03 1.893900408978071038e-03
4.709999999999999777e-03 4.431905410739045870e+00 6.903512974832482635e-03 2.096551352830673849e-03
7.496000000000000059e-03 7.058993649504918366e+00 1.289742191321638018e-02 2.466596387205546859e-03
1.119999999999999989e-02 1.055540362104863661e+01 2.212077014004794340e-02 2.809304433764861584e-03
1.600000000000000033e-02 1.509117352747679952e+01 3.559566804390756900e-02 3.132325055719984222e-03
2.206999999999999934e-02 2.083310616724802244e+01 5.457322122755020599e-02 3.477840948757840792e-03
2.947999999999999926e-02 2.785007348564149154e+01 8.049103664263126956e-02 3.909302116317729670e-03
4.268000000000000266e-02 4.036707211535221518e+01 1.353887601042819133e-01 4.862066536253286525e-03
6.219999999999999835e-02 5.891246509830522626e+01 2.419691225623893105e-01 6.630786177272363080e-03
7.316999999999999893e-02 6.935151695866235855e+01 3.161896974764099033e-01 7.588671314871411888e-03
7.595999999999999974e-02 7.200836722020332559e+01 3.371250777904805096e-01 8.170805199905812125e-03
7.685877551020407761e-02 7.286441676581723925e+01 3.442002592290134833e-01 8.359028150177147745e-03
7.775755102040816935e-02 7.372054997365644624e+01 3.514341064773989221e-01 8.539847017102081619e-03
7.865632653061224722e-02 7.457676767543183871e+01 3.588204928686822837e-01 8.713670065238513993e-03
7.955510204081632508e-02 7.543307061581033679e+01 3.663536391866681341e-01 8.880905559144346845e-03
8.045387755102040295e-02 7.628945945929208960e+01 3.740281137750488538e-01 9.041961763377482156e-03
8.135265306122449469e-02 7.714593479678097765e+01 3.818388326577894509e-01 9.197246942495823641e-03
8.225142857142857256e-02 7.800249715186612320e+01 3.897810596693583318e-01 9.347169361057269810e-03
8.315020408163265042e-02 7.885914698683079394e+01 3.978504065935369316e-01 9.492137283619722643e-03
8.404897959183672829e-02 7.971588470840249840e+01 4.060428333096640086e-01 9.632558974741080651e-03
8.494775510204082003e-02 8.057271067325875435e+01 4.143546479452958620e-01 9.768842698979256223e-03
8.584653061224489790e-02 8.142962519330178850e+01 4.227825070343708136e-01 9.901396720892135725e-03
8.674530612244897576e-02 8.228662854071367860e+01 4.313234156800743735e-01 1.003062930503762808e-02
8.764408163265305363e-02 8.314372095280384656e+01 4.399747277216936037e-01 1.015694871597363873e-02
8.854285714285714537e-02 8.400090263665921952e+01 4.487341459048448944e-01 1.028076321825806619e-02
8.944163265306122323e-02 8.485817377360774572e+01 4.575997220545400812e-01 1.040248107644880723e-02
9.034040816326530110e-02 8.571553452350356395e+01 4.665698572506384312e-01 1.052251055510376905e-02
9.123918367346939284e-02 8.657298502884384561e+01 4.756433020053025817e-01 1.064125991878084841e-02
9.213795918367347071e-02 8.743052541872533823e+01 4.848191564421487354e-01 1.075913743203795250e-02
9.303673469387754857e-02 8.828815581264765910e+01 4.940968704768471942e-01 1.087655135943297810e-02
9.393551020408162644e-02 8.914587632417170937e+01 5.034762439989863836e-01 1.099390996552383239e-02
9.483428571428570431e-02 9.000368706444011480e+01 5.129574270550760762e-01 1.111162151486840347e-02
9.573306122448979605e-02 9.086158814556512198e+01 5.225409200326159853e-01 1.123009427202461066e-02
9.663183673469387391e-02 9.171957968389182270e+01 5.322275738452071359e-01 1.134973650155034382e-02
9.753061224489795178e-02 9.257766180314131077e+01 5.420185901187346555e-01 1.147095646800350838e-02
9.842938775510204352e-02 9.343583463743948414e+01 5.519155213786894887e-01 1.159416243594200459e-02
9.932816326530612139e-02 9.429409833423743237e+01 5.619202712387439957e-01 1.171976266992373443e-02
1.002269387755101993e-01 9.515245305712740276e+01 5.720350945907356488e-01 1.184816543450660162e-02
1.011257142857142910e-01 9.601089898855947524e+01 5.822625977962482269e-01 1.197977899424850293e-02
1.020244897959183689e-01 9.686943633246379193e+01 5.926057388800173298e-01 1.211501161370734034e-02
1.029232653061224467e-01 9.772806531678162401e+01 6.030678277254231112e-01 1.225427155744101930e-02
1.038220408163265246e-01 9.858678619590983772e+01 6.136525262723593332e-01 1.239796709000743832e-02
1.047208163265306025e-01 9.944559925306253945e+01 6.243638487178030383e-01 1.254650647596449939e-02
1.056195918367346942e-01 1.003045048025534669e+02 6.352061617194362242e-01 1.270029797987010968e-02
1.065183673469387721e-01 1.011635031920019969e+02 6.461841846026956659e-01 1.285974986628216250e-02
1.074171428571428499e-01 1.020225948044669622e+02 6.573029895716581139e-01 1.302527039975856157e-02
1.083159183673469417e-01 1.028817800605105930e+02 6.685680019241853067e-01 1.319726784485720887e-02
1.092146938775510195e-01 1.037410594201956684e+02 6.799850002717816588e-01 1.337615046613600638e-02
1.101134693877550974e-01 1.046004333850190449e+02 6.915601167646394654e-01 1.356232652815285433e-02
1.110122448979591891e-01 1.054599024997834675e+02 7.032998373223630084e-01 1.375620429546565646e-02
1.119110204081632531e-01 1.063194673544109321e+02 7.152110018708863759e-01 1.395819203263231126e-02
1.128097959183673449e-01 1.071791285856999281e+02 7.273008045861208970e-01 1.416869800421072592e-02
1.137085714285714227e-01 1.080388868790283112e+02 7.395767941448765370e-01 1.438813047475879202e-02
1.146073469387755006e-01 1.088987429700039939e+02 7.520468739836340122e-01 1.461689770883441673e-02
1.155061224489795924e-01 1.097586976460671764e+02 7.647193025657448295e-01 1.485540797099551072e-02
1.164048979591836702e-01 1.106187517480432234e+02 7.776026936576627691e-01 1.510406952579996034e-02
1.173036734693877481e-01 1.114789061716508911e+02 7.907060166148239810e-01 1.536329063780567279e-02
1.182024489795918398e-01 1.123391618689662721e+02 8.040385966778010873e-01 1.563347957157055351e-02
1.191012244897959177e-01 1.131995198498439663e+02 8.176101152793766591e-01 1.591504459165249755e-02
1.199999999999999956e-01 1.140599811832989161e+02 8.314306103631954326e-01 1.620839396260941034e-02
1.219128941171657848e-01 1.158916804962728264e+02 8.617241311027904471e-01 1.686848781107011183e-02
1.238257882343315880e-01 1.177238648855407916e+02 8.932654669968211891e-01 1.756173708476958459e-02
1.257386823514973773e-01 1.195565466131329799e+02 9.261169079281474925e-01 1.828885145770153473e-02
1.276515764686631804e-01 1.213897385260990376e+02 9.603421243917025230e-01 1.905053250802938442e-02
1.295644705858289836e-01 1.232234540508258789e+02 9.960061582664831992e-01 1.984747368041988452e-02
1.314773647029947590e-01 1.250577071875557778e+02 1.033175413764950257e+00 2.068036024014633170e-02
1.333902588201605621e-01 1.268925125050932792e+02 1.071917648549253643e+00 2.154986921950660314e-02
1.353031529373263653e-01 1.287278851356894052e+02 1.112301965004408810e+00 2.245666935705725384e-02
1.372160470544921407e-01 1.305638407700928383e+02 1.154398801659216156e+00 2.340142103013705815e-02
1.391289411716579438e-01 1.324003956527586467e+02 1.198279924746302516e+00 2.438477618113004189e-02
1.410418352888237470e-01 1.342375665772050013e+02 1.244018419893224259e+00 2.540737823789082986e-02
1.429547294059895224e-01 1.360753708815101959e+02 1.291688683937096238e+00 2.646986202873884142e-02
1.448676235231553255e-01 1.379138264439420141e+02 1.341366416855682031e+00 2.757285369240539130e-02
1.467805176403211287e-01 1.397529516787121793e+02 1.393128613808320759e+00 2.871697058330298369e-02
1.486934117574869318e-01 1.415927655318487552e+02 1.447053557280499225e+00 2.990282117246924332e-02
1.506063058746527072e-01 1.434332874771806985e+02 1.503220809326242247e+00 3.113100494452438263e-02
1.525191999918185104e-01 1.452745375124288785e+02 1.561711203902872658e+00 3.240211229096830875e-02
1.544320941089843136e-01 1.471165361553968864e+02 1.622606839293006864e+00 3.371672440013107064e-02
1.563449882261501167e-01 1.489593044402577391e+02 1.685991070608996667e+00 3.507541314408055971e-02
1.582578823433158921e-01 1.508028639139312475e+02 1.751948502375288763e+00 3.647874096278056616e-02
1.601707764604816953e-01 1.526472366325467647e+02 1.820564981184479292e+00 3.792726074578403606e-02
1.620836705776474984e-01 1.544924451579880724e+02 1.891927588423063744e+00 3.942151571173700686e-02
1.639965646948132738e-01 1.563385125545158871e+02 1.966124633063167204e+00 4.096203928596222482e-02
1.659094588119790770e-01 1.581854623854639215e+02 2.043245644516733517e+00 4.254935497638325653e-02
1.678223529291448801e-01 1.600333187100061991e+02 2.123381365548868249e+00 4.418397624804337037e-02
1.697352470463106555e-01 1.618821060799895690e+02 2.206623745247256352e+00 4.586640639646770434e-02
1.716481411634764587e-01 1.637318495368325273e+02 2.293065932044737743e+00 4.759713842011126933e-02
1.735610352806422618e-01 1.655825746084821333e+02 2.382802266792301005e+00 4.937665489212864772e-02
1.754739293978080372e-01 1.674343073064317480e+02 2.475928275879947904e+00 5.120542783169850648e-02
1.773868235149738404e-01 1.692870741227915801e+02 2.572540664403017097e+00 5.308391857512809175e-02
1.792997176321396435e-01 1.711409020274141710e+02 2.672737309371690628e+00 5.501257764696089458e-02
1.812126117493054467e-01 1.729958184650685666e+02 2.776617252961592897e+00 5.699184463130399503e-02
1.831255058664712498e-01 1.748518513526646814e+02 2.884280695803469463e+00 5.902214804358861533e-02
1.850383999836370252e-01 1.767090290765222562e+02 2.995828990310089868e+00 6.110390520297276362e-02
1.869512941008028284e-01 1.785673804896843819e+02 3.111364634038632726e+00 6.323752210559049902e-02
1.888641882179686315e-01 1.804269349092739390e+02 3.230991263086888665e+00 6.542339329884827581e-02
1.907770823351344069e-01 1.822877221138890604e+02 3.354813645521776966e+00 6.766190175696583375e-02
1.926899764523002101e-01 1.841497723410388403e+02 3.482937674838721964e+00 6.995341875795442477e-02
1.946028705694660133e-01 1.860131162846154211e+02 3.615470363450523195e+00 7.229830376222040611e-02
1.965157646866317886e-01 1.878777850924010124e+02 3.752519836204489589e+00 7.469690429298105061e-02
1.984286588037975918e-01 1.897438103636104358e+02 3.894195323926641805e+00 7.714955581867309620e-02
2.003415529209633950e-01 1.916112241464653891e+02 4.040607156991849358e+00 7.965658163752496745e-02
2.022544470381291704e-01 1.934800589357996898e+02 4.191866758918927793e+00 8.221829276450687285e-02
2.041673411552950013e-01 1.953503476706960953e+02 4.348086639989681146e+00 8.483498782072931843e-02
2.060802352724607767e-01 1.972221237321510330e+02 4.509380390890948220e+00 8.750695292558760552e-02
2.079931293896265521e-01 1.990954209407671556e+02 4.675862676378916838e+00 9.023446159171774617e-02
2.099060235067923830e-01 2.009702735544729251e+02 4.847649228964793444e+00 9.301777462295848786e-02
2.118189176239581584e-01 2.028467162662681176e+02 5.024856842621128195e+00 9.585714001546995211e-02
2.137318117411239615e-01 2.047247842019933728e+02 5.207603366508148035e+00 9.875279286215798979e-02
2.910025910933459192e-01 2.823299790496582204e+02 1.626934221895615096e+01 1.844973702213818512e-01
3.682733704455678492e-01 3.637860922956668333e+02 3.488629667866047868e+01 2.702419475806057125e-01
4.455441497977898346e-01 4.499687789184068833e+02 6.199299075317206587e+01 3.559865249398295739e-01
5.228149291500118201e-01 5.416227387643016300e+02 9.869922207170066031e+01 4.417311022990534353e-01
6.000857085022337500e-01 6.394469510416805633e+02 1.462853899468488805e+02 5.274756796582773521e-01
6.773564878544556800e-01 7.441352252885662892e+02 2.062096368805182180e+02 6.132202570175011580e-01
7.546272672066777210e-01 8.563991185686356857e+02 2.801210368679073213e+02 6.989648343767250749e-01
8.318980465588996509e-01 9.768241458631312071e+02 3.591670692118664192e+02 6.184854874504143174e-01
9.091688259111215809e-01 1.104161428098878787e+03 4.245614528658878726e+02 4.159163805632466460e-01
9.864396052633435108e-01 1.235969065779120683e+03 4.658009471984531160e+02 2.133472736760789745e-01
1.063710384615565552e+00 1.369906333887161054e+03 4.808118150719351434e+02 1.176372493672482589e-02
1.140981163967787371e+00 1.504422997299695908e+03 4.829500083842477238e+02 2.002256408702331875e-02
1.218251943320009412e+00 1.639121366642788644e+03 4.862036638843394485e+02 2.828140323732183242e-02
1.295522722672231453e+00 1.774060901637758889e+03 4.905776939357138531e+02 3.654024238762034610e-02
1.372793502024453272e+00 1.909294284100460118e+03 4.960782120581835102e+02 4.479908153791883896e-02
1.450064281376675313e+00 2.044868628351131065e+03 5.027123672994163144e+02 5.305792068821735263e-02
1.527335060728897353e+00 2.180826424994380432e+03 5.104882136239381794e+02 6.131675983851586631e-02
1.604605840081119172e+00 2.317206287276086641e+03 5.194146055421475694e+02 6.957559898881435223e-02
1.681876619433341213e+00 2.454043548799098971e+03 5.295011137319770569e+02 7.783443813911287978e-02
1.759147398785563032e+00 2.591370747644136827e+03 5.407579561211269947e+02 8.609327728941136570e-02
1.836418178137785073e+00 2.729218022507532169e+03 5.531959410856975410e+02 9.435211643970987938e-02
1.913688957490007114e+00 2.867613439862171617e+03 5.668264202595345296e+02 1.026109555900083931e-01
1.990959736842228933e+00 3.006750335649454428e+03 5.919670854762802037e+02 2.581221057131107277e-01
2.068230516194450974e+00 3.147314008264781023e+03 6.450541936509085872e+02 4.949150251308079285e-01
