# density  energy_density  pressure   sound_speed_squared  [All in nuclear units]
2.720000000000000022e-14 2.529924618736292620e-11 1.061056609100270887e-19 3.766610435412189122e-08
1.269999999999999890e-13 1.181251617980081254e-10 4.870113551826584858e-18 6.497781477172163475e-08
6.929999999999999754e-13 6.445728594625782745e-10 1.018299070687946017e-16 3.033770597342807186e-07
6.295000000000000137e-12 5.855111460395753757e-09 5.487150723824490656e-15 1.763710043904196507e-06
1.581000000000000150e-11 1.470523320212576141e-08 2.904239460150760759e-14 3.559434472327477622e-06
3.971999999999999958e-11 3.694456170323160790e-08 1.439340266754906811e-13 6.772854871245677111e-06
9.975999999999999982e-11 9.278976412613005154e-08 6.812143616221268841e-13 1.246890511177539320e-05
2.505999999999999928e-10 2.330928829758143313e-07 3.107749196951638608e-12 2.212095130576091967e-05
6.294000000000000186e-10 5.854398883216247602e-07 1.363250409771533549e-11 3.761981047239428883e-05
1.581000000000000021e-09 1.470619631082054101e-06 5.726014178088476303e-11 6.095350986710739404e-05
3.971999999999999932e-09 3.694861084648016046e-06 2.210019573374265380e-10 8.628023653304385055e-05
5.000000000000000105e-09 4.651201787816927976e-06 3.071485916280120014e-10 9.387863480799757518e-05
9.975999999999999465e-09 9.280587964640925786e-06 8.385361004129998845e-10 1.356922228656245837e-04
1.989999999999999952e-08 1.851419242998081003e-05 2.287763168863418088e-09 1.782101978513718314e-04
3.972999999999999908e-08 3.696699295748789187e-05 6.061583099087538954e-09 2.308134738384234820e-04
7.925999999999999637e-08 7.375765469301719828e-05 1.575347858094044765e-08 2.960532096713864875e-04
1.580999999999999930e-07 1.471491184379128891e-04 3.910429618672550719e-08 3.402859755131850544e-04
1.991000000000000027e-07 1.853209783927820692e-04 5.252045687899177454e-08 3.626488188833278743e-04
3.155999999999999938e-07 2.938002528823880299e-04 9.730770378831954314e-08 4.630767356912104081e-04
5.000999999999999849e-07 4.656344063839075714e-04 1.837494945860225819e-07 5.430301232045120323e-04
6.295999999999999732e-07 5.862651417037388971e-04 2.503103884558263872e-07 5.605192962670089638e-04
9.666999999999999941e-07 9.003386739730535665e-04 4.324450868778576936e-07 5.993081670211623108e-04
1.531999999999999901e-06 1.427170885631398036e-03 7.780217275717420968e-07 7.125938556504039095e-04
2.506999999999999883e-06 2.336134972129507662e-03 1.471005394641589826e-06 8.121876172121876309e-04
3.974000000000000407e-06 3.704315759716615697e-03 2.695705763844323844e-06 9.780674166779417152e-04
4.830000000000000343e-06 4.502887798316278223e-03 3.503988717694660908e-06 1.046253037768318664e-03
6.080999999999999885e-06 5.670217999231269741e-03 4.731126407333307547e-06 1.056224360839501646e-03
7.930000000000000308e-06 7.396012414119570652e-03 6.599662989063778187e-06 1.109203753630785610e-03
9.982000000000000313e-06 9.311815711689977113e-03 8.879881089227186733e-06 1.271216815433141075e-03
1.256999999999999993e-05 1.172874412604260098e-02 1.207676739913533738e-05 1.374195438212825332e-03
1.521999999999999997e-05 1.420427250933824909e-02 1.547541302213394990e-05 1.371610497379100249e-03
1.991000000000000080e-05 1.858690797761085312e-02 2.160710455847765458e-05 1.426578142835871997e-03
2.506999999999999883e-05 2.341050104039446925e-02 2.908031724375689851e-05 1.672007475975408053e-03
2.790999999999999875e-05 2.606604784714952258e-02 3.357009132255487721e-05 1.709425557744154774e-03
3.806999999999999973e-05 3.556967988784798945e-02 4.986781576435106434e-05 1.720407281314112165e-03
5.063000000000000145e-05 4.732434580343149871e-02 7.073400252905581275e-05 1.829889149838781265e-03
6.592000000000000583e-05 6.164112392498975052e-02 9.765037643900635188e-05 1.930242980462695823e-03
8.433000000000000066e-05 7.888776783401378612e-02 1.317235490470395893e-04 2.021055815200022837e-03
1.062000000000000064e-04 9.938561165478684845e-02 1.740088341640037047e-04 2.104789529260958983e-03
1.321000000000000126e-04 1.236720406455826121e-01 2.260189757651373944e-04 2.178291718403657477e-03
1.623999999999999901e-04 1.520974545104751274e-01 2.888169908545388338e-04 2.240170365918073281e-03
1.689999999999999879e-04 1.582907717069566844e-01 3.027354772999506964e-04 2.254509350360745651e-03
1.758999999999999930e-04 1.647661861691531171e-01 3.173785841705756782e-04 2.268169273277113179e-03
1.830000000000000029e-04 1.714298948183871907e-01 3.325196584577469103e-04 2.276170334580628063e-03
1.901999999999999882e-04 1.781880600978280049e-01 3.479577791899843742e-04 2.292561569242367037e-03
1.977000000000000079e-04 1.852284385240466902e-01 3.641242634600037713e-04 2.299943765467868384e-03
2.054000000000000053e-04 1.924572004474696396e-01 3.808304060475003897e-04 2.322187632288155723e-03
2.079000000000000119e-04 1.948043378760714872e-01 3.864137987380476553e-04 2.435429768083530178e-03
2.081999999999999921e-04 1.950859988578999005e-01 3.870314100985603909e-04 1.950065624557156818e-03
2.090999999999999868e-04 1.959309855029948977e-01 3.881261957135444685e-04 6.411875526909013856e-04
2.159999999999999919e-04 2.024093317906446865e-01 3.940874488768042125e-04 1.199166870571831411e-03
2.231000000000000019e-04 2.090756740932291913e-01 4.013938420547467825e-04 9.928616047829054436e-04
2.311000000000000066e-04 2.165873044433437034e-01 4.085241694843774404e-04 9.056166966301716637e-04
2.401000000000000085e-04 2.250381721984245909e-01 4.159700687886608468e-04 8.565463878902855599e-04
2.500000000000000052e-04 2.343344406330727658e-01 4.237602369176299592e-04 8.194318812157330018e-04
2.642999999999999733e-04 2.477629128650125634e-01 4.345596643180389446e-04 7.890063723638815647e-04
3.052999999999999941e-04 2.862671839140227270e-01 4.644058706720978241e-04 7.612775562167708662e-04
3.533000000000000224e-04 3.313503829113090826e-01 4.987577676308450197e-04 7.626578558207241024e-04
4.075999999999999871e-04 3.823564017794535141e-01 5.381334366106255759e-04 7.813048116943254948e-04
4.679999999999999915e-04 4.390986251953180042e-01 5.832692638200615834e-04 8.096035963157804938e-04
5.341000000000000261e-04 5.012024644415256081e-01 6.346556894078133086e-04 8.452514814113673558e-04
6.059000000000000366e-04 5.686690698184251325e-01 6.930641302632923034e-04 8.862253587289389486e-04
7.661000000000000275e-04 7.192254882508629654e-01 8.328184776562496576e-04 9.702780530519144065e-04
1.262000000000000101e-03 1.185459127778160093e+00 1.338484980802662205e-03 1.198863597978450275e-03
1.894999999999999983e-03 1.780909071169781921e+00 2.123481960401060308e-03 1.437771491635827115e-03
2.673000000000000029e-03 2.513147344746868850e+00 3.261860252001994032e-03 1.671524566936786766e-03
3.605999999999999830e-03 3.391736073717691369e+00 4.828136641022434151e-03 1.893900408978071038e-03
4.709999999999999777e-03 4.431905410739045870e+00 6.903512974832482635e-03 2.096551352830673849e-03
7.496000000000000059e-03 7.058993649504918366e+00 1.289742191321638018e-02 2.466596387205546859e-03
1.119999999999999989e-02 1.055540362104863661e+01 2.212077014004794340e-02 2.809304433764861584e-03
1.600000000000000033e-02 1.509117352747679952e+01 3.559566804390756900e-02 3.132325055719984222e-03
2.206999999999999934e-02 2.083310616724802244e+01 5.457322122755020599e-02 3.477840948757840792e-03
2.947999999999999926e-02 2.785007348564149154e+01 8.049103664263126956e-02 3.909302116317729670e-03
4.268000000000000266e-02 4.036707211535221518e+01 1.353887601042819133e-01 4.862066536253286525e-03
6.219999999999999835e-02 5.891246509830522626e+01 2.419691225623893105e-01 6.630786177272363080e-03
7.316999999999999893e-02 6.935151695866235855e+01 3.161896974764099033e-01 7.588671314871411888e-03
7.595999999999999974e-02 7.200836722020332559e+01 3.371250777904805096e-01 8.170805199905812125e-03
7.685877551020407761e-02 7.286441680076703165e+01 3.442062402851808200e-01 8.373000405669390675e-03
7.775755102040816935e-02 7.372055020570003592e+01 3.514619348630218520e-01 8.576906914945335234e-03
7.865632653061224722e-02 7.457676849225528315e+01 3.588936808099615905e-01 8.782550000458621067e-03
7.955510204081632508e-02 7.543307271101305389e+01 3.665030200823259920e-01 8.989954934934239056e-03
8.045387755102040295e-02 7.628946390636313879e+01 3.742915173253659744e-01 9.199146991097174875e-03
8.135265306122449469e-02 7.714594311696605189e+01 3.822607598922703187e-01 9.410151441672414199e-03
8.225142857142857256e-02 7.800251137619368080e+01 3.904123578636273795e-01 9.622993559384932297e-03
8.315020408163265042e-02 7.885916971255154806e+01 3.987479440673315501e-01 9.837698616959721781e-03
8.404897959183672829e-02 7.971591915008234253e+01 4.072691740989274889e-01 1.005429188712176659e-02
8.494775510204082003e-02 8.057276070875269625e+01 4.159777263423898863e-01 1.027279864259605414e-02
8.584653061224489790e-02 8.142969540482401669e+01 4.248753019913329432e-01 1.049324415610756144e-02
8.674530612244897576e-02 8.228672425120753076e+01 4.339636250706488951e-01 1.071565370038127588e-02
8.764408163265305363e-02 8.314384825780531685e+01 4.432444424585694209e-01 1.094005254814218835e-02
8.854285714285714537e-02 8.400106843183735350e+01 4.527195239091498791e-01 1.116646597211527932e-02
8.944163265306122323e-02 8.485838577815543715e+01 4.623906620751723207e-01 1.139491924502552926e-02
9.034040816326530110e-02 8.571580129954485017e+01 4.722596725314680000e-01 1.162543763959792559e-02
9.123918367346939284e-02 8.657331599701433333e+01 4.823283937986548864e-01 1.185804642855745744e-02
9.213795918367347071e-02 8.743093087007459019e+01 4.925986873672902888e-01 1.209277088462910529e-02
9.303673469387754857e-02 8.828864691700641743e+01 5.030724377224393695e-01 1.232963628053785135e-02
9.393551020408162644e-02 8.914646513511866033e+01 5.137515523686555508e-01 1.256866788900868996e-02
9.483428571428570431e-02 9.000438652099640535e+01 5.246379618553750346e-01 1.280989098276659466e-02
9.573306122448979605e-02 9.086241207074002091e+01 5.357336198027248253e-01 1.305333083453655806e-02
9.663183673469387391e-02 9.172054278019575690e+01 5.470405029277425335e-01 1.329901271704355889e-02
9.753061224489795178e-02 9.257877964517784619e+01 5.585606110710118477e-01 1.354696190301258284e-02
9.842938775510204352e-02 9.343712366168219319e+01 5.702959672237100097e-01 1.379720366516862425e-02
9.932816326530612139e-02 9.429557582609325550e+01 5.822486175550705134e-01 1.404976327623665491e-02
1.002269387755101993e-01 9.515413713538349327e+01 5.944206314402623592e-01 1.430466600894166745e-02
1.011257142857142910e-01 9.601280858730527257e+01 6.068141014886848650e-01 1.456193713600864408e-02
1.020244897959183689e-01 9.687159118057739704e+01 6.194311435726794768e-01 1.482160193016256525e-02
1.029232653061224467e-01 9.773048591506385208e+01 6.322738968566624651e-01 1.508368566412841491e-02
1.038220408163265246e-01 9.858949379194808671e+01 6.453445238266768413e-01 1.534821361063119088e-02
1.047208163265306025e-01 9.944861581390019012e+01 6.586452103203664921e-01 1.561521104239586497e-02
1.056195918367346942e-01 1.003078529852396201e+02 6.721781655573746406e-01 1.588470323214743324e-02
1.065183673469387721e-01 1.011672063120917784e+02 6.859456221701667467e-01 1.615671545261086750e-02
1.074171428571428499e-01 1.020266768025404645e+02 6.999498362352833958e-01 1.643127297651116037e-02
1.083159183673469417e-01 1.028862654667744039e+02 7.141930873050205131e-01 1.670840107657329404e-02
1.092146938775510195e-01 1.037459733172305363e+02 7.286776784395421203e-01 1.698812502552225420e-02
1.101134693877550974e-01 1.046058013687313633e+02 7.434059362394285220e-01 1.727047009608302652e-02
1.110122448979591891e-01 1.054657506386193830e+02 7.583802108786594776e-01 1.755546156098059321e-02
1.119110204081632531e-01 1.063258221468864235e+02 7.736028761380359109e-01 1.784312469293993647e-02
1.128097959183673449e-01 1.071860169163000904e+02 7.890763294390469307e-01 1.813348476468605239e-02
1.137085714285714227e-01 1.080463359725251991e+02 8.048029918781746117e-01 1.842656704894391276e-02
1.146073469387755006e-01 1.089067803442431313e+02 8.207853082616519691e-01 1.872239681843850326e-02
1.155061224489795924e-01 1.097673510632662470e+02 8.370257471406670202e-01 1.902099934589482344e-02
1.164048979591836702e-01 1.106280491646500934e+02 8.535268008470193735e-01 1.932239990403784163e-02
1.173036734693877481e-01 1.114888756868019755e+02 8.702909855292344510e-01 1.962662376559254351e-02
1.182024489795918398e-01 1.123498316715865712e+02 8.873208411891341241e-01 1.993369620328393210e-02
1.191012244897959177e-01 1.132109181644283922e+02 9.046189317188684242e-01 2.024364248983696185e-02
1.199999999999999956e-01 1.140721362144117563e+02 9.221878449384146581e-01 2.055648789797664619e-02
1.213746087591508482e-01 1.153895608974785887e+02 9.495890209818593775e-01 2.104155397885625403e-02
1.227492175183017148e-01 1.167072995978984977e+02 9.776433803614179574e-01 2.153794321322592686e-02
1.241238262774525675e-01 1.180253561997394627e+02 1.006366308232723217e+00 2.204575843316789949e-02
1.254984350366034340e-01 1.193437346722717791e+02 1.035773342782402073e+00 2.256510074068840410e-02
1.268730437957542867e-01 1.206624390688344874e+02 1.065880173512219420e+00 2.309606952983749018e-02
1.282476525549051394e-01 1.219814735257332927e+02 1.096702639560564796e+00 2.363876250793311984e-02
1.296222613140559921e-01 1.233008422611678441e+02 1.128256728060100134e+00 2.419327571593262241e-02
1.309968700732068725e-01 1.246205495741874358e+02 1.160558572530450805e+00 2.475970354799393591e-02
1.323714788323577252e-01 1.259405998436726577e+02 1.193624451304862832e+00 2.533813877026568073e-02
1.337460875915085778e-01 1.272609975273451113e+02 1.227470785989808411e+00 2.592867253894328566e-02
1.351206963506594305e-01 1.285817471608009441e+02 1.262114139956544534e+00 2.653139441762621120e-02
1.364953051098102832e-01 1.299028533565681869e+02 1.297571216863691479e+00 2.714639239401068702e-02
1.378699138689611359e-01 1.312243208031888457e+02 1.333858859209927417e+00 2.777375289594891800e-02
1.392445226281120163e-01 1.325461542643216433e+02 1.370994046915934295e+00 2.841356080690558839e-02
1.406191313872628690e-01 1.338683585778673262e+02 1.408993895934760321e+00 2.906589948083978386e-02
1.419937401464137217e-01 1.351909386551147634e+02 1.447875656889817453e+00 2.973085075654160331e-02
1.433683489055645743e-01 1.365138994799063994e+02 1.487656713739733183e+00 3.040849497144719471e-02
1.447429576647154270e-01 1.378372461078232902e+02 1.528354582469335865e+00 3.109891097495901327e-02
1.461175664238663074e-01 1.391609836653895798e+02 1.569986909806066810e+00 3.180217614129458165e-02
1.474921751830171601e-01 1.404851173492936312e+02 1.612571471961137703e+00 3.251836638188625866e-02
1.488667839421680128e-01 1.418096524256274904e+02 1.656126173394797840e+00 3.324755615735436320e-02
1.502413927013188655e-01 1.431345942291432038e+02 1.700669045605070373e+00 3.398981848907405012e-02
1.516160014604697182e-01 1.444599481625241140e+02 1.746218245939369140e+00 3.474522497035602286e-02
1.529906102196205708e-01 1.457857196956742030e+02 1.792792056428416325e+00 3.551384577726041797e-02
1.543652189787714513e-01 1.471119143650200272e+02 1.840408882641907828e+00 3.629574967906167710e-02
1.557398277379223039e-01 1.484385377728291644e+02 1.889087252565385899e+00 3.709100404838258647e-02
1.571144364970731566e-01 1.497655955865429007e+02 1.938845815497824088e+00 3.789967487101384563e-02
1.584890452562240093e-01 1.510930935381211100e+02 1.989703340969408485e+00 3.872182675543572178e-02
1.598636540153748897e-01 1.524210374234025380e+02 2.041678717679058952e+00 3.955752294205705510e-02
1.612382627745257424e-01 1.537494331014769386e+02 2.094790952451221600e+00 4.040682531218663803e-02
1.626128715336765951e-01 1.550782864940695163e+02 2.149059169211507747e+00 4.126979439675158845e-02
1.639874802928274478e-01 1.564076035849391531e+02 2.204502607980739270e+00 4.214648938477612988e-02
1.653620890519783004e-01 1.577373904192861289e+02 2.261140623887007539e+00 4.303696813163445517e-02
1.667366978111291531e-01 1.590676531031738534e+02 2.318992686195349151e+00 4.394128716709020527e-02
1.681113065702800058e-01 1.603983978029599484e+02 2.378078377354662987e+00 4.485950170313514340e-02
1.694859153294308862e-01 1.617296307447387562e+02 2.438417392061508426e+00 4.579166564163871661e-02
1.708605240885817389e-01 1.630613582137946196e+02 2.500029536340428571e+00 4.673783158182012037e-02
1.722351328477325916e-01 1.643935865540660473e+02 2.562934726640482719e+00 4.769805082755390613e-02
1.736097416068834443e-01 1.657263221676174396e+02 2.627152988947640377e+00 4.867237339451960243e-02
1.749843503660343247e-01 1.670595715141237179e+02 2.692704457912746818e+00 4.966084801720611203e-02
1.763589591251851774e-01 1.683933411103621722e+02 2.759609375994749314e+00 5.066352215577999557e-02
1.777335678843360300e-01 1.697276375297144853e+02 2.827888092618915827e+00 5.168044200282841810e-02
1.791081766434868827e-01 1.710624674016770257e+02 2.897561063349746391e+00 5.271165248998479352e-02
1.804827854026377354e-01 1.723978374113809195e+02 2.968648849078331597e+00 5.375719729444683459e-02
1.818573941617885881e-01 1.737337542991196244e+02 3.041172115223898409e+00 5.481711884539576529e-02
1.832320029209394407e-01 1.750702248598848314e+02 3.115151630949298145e+00 5.589145833032410637e-02
1.846066116800903212e-01 1.764072559429118598e+02 3.190608268390206614e+00 5.698025570128144313e-02
1.859812204392411739e-01 1.777448544512305375e+02 3.267563001897800579e+00 5.808354968104481597e-02
1.873558291983920265e-01 1.790830273412262272e+02 3.346036907294720031e+00 5.920137776922213685e-02
2.651648939086289070e-01 2.563257064904014442e+02 1.188474272384810604e+01 1.599961942040288299e-01
3.429739586188658151e-01 3.371967382470314192e+02 2.901416651172202066e+01 2.607910106388355853e-01
4.207830233291026678e-01 4.229528272616205413e+02 5.585468279936588232e+01 3.615858270736422297e-01
4.985920880393396315e-01 5.146103807429989274e+02 9.381315616216556919e+01 4.623806435084490962e-01
5.764011527495764842e-01 6.131048487485364831e+02 1.445649012476083044e+02 5.631754599432557962e-01
6.542102174598133368e-01 7.193613206995296423e+02 2.100636260354410183e+02 6.639702763780624961e-01
7.320192821700503005e-01 8.343328930344267746e+02 2.925645152720802571e+02 7.647650928128693071e-01
8.098283468802871532e-01 9.590254012965998527e+02 3.946557514620518532e+02 8.655599092476758960e-01
8.876374115905240059e-01 1.094431413312874838e+03 5.057417030333983234e+02 7.813177622443641113e-01
9.654464763007609696e-01 1.238985609556683812e+03 5.901620808208506332e+02 4.018918586027274698e-01
1.043255541010997822e+00 1.388329861879450618e+03 6.345730134078399942e+02 1.960293262333002995e-01
1.121064605721234786e+00 1.540426080086726188e+03 6.693138953640739146e+02 2.601942927669777528e-01
1.198873670431471750e+00 1.695281854113114605e+03 7.146330724508972025e+02 3.243592593006552338e-01
1.276682735141708713e+00 1.853421680213798709e+03 7.710720697088561337e+02 3.885242258343326593e-01
1.354491799851945455e+00 2.015341590898963204e+03 8.392616324994010029e+02 4.526891923680099739e-01
1.432300864562182419e+00 2.181428274948630133e+03 9.136861461640615971e+02 4.437688420097482545e-01
1.510109929272419382e+00 2.351520579651113621e+03 9.853214528666524075e+02 3.993145842211850427e-01
1.587918993982656124e+00 2.525145363435321087e+03 1.050738400507997994e+03 3.548603264326218865e-01
1.665728058692893088e+00 2.701812444148375562e+03 1.109458797787882759e+03 3.104060686440586747e-01
1.743537123403130051e+00 2.881056864971054893e+03 1.161077140972379539e+03 2.659518108554954630e-01
1.821346188113366793e+00 3.062438656616806838e+03 1.205256077221652731e+03 2.214975530669323067e-01
1.899155252823603757e+00 3.245542446481054867e+03 1.241721887758049661e+03 1.770432952783690950e-01
1.976964317533840720e+00 3.430032225772065885e+03 1.273483470044476690e+03 1.673218936298797033e-01
2.054773382244077240e+00 3.615825168647591909e+03 1.308966560128302717e+03 2.144438705007555568e-01
