# density  energy_density  pressure   sound_speed_squared  [All in nuclear units]
2.720000000000000022e-14 2.529924618736292620e-11 1.061056609100270887e-19 3.766610435412189122e-08
1.269999999999999890e-13 1.181251617980081254e-10 4.870113551826584858e-18 6.497781477172163475e-08
6.929999999999999754e-13 6.445728594625782745e-10 1.018299070687946017e-16 3.033770597342807186e-07
6.295000000000000137e-12 5.855111460395753757e-09 5.487150723824490656e-15 1.763710043904196507e-06
1.581000000000000150e-11 1.470523320212576141e-08 2.904239460150760759e-14 3.559434472327477622e-06
3.971999999999999958e-11 3.694456170323160790e-08 1.439340266754906811e-13 6.772854871245677111e-06
9.975999999999999982e-11 9.278976412613005154e-08 6.812143616221268841e-13 1.246890511177539320e-05
2.505999999999999928e-10 2.330928829758143313e-07 3.107749196951638608e-12 2.212095130576091967e-05
6.294000000000000186e-10 5.854398883216247602e-07 1.363250409771533549e-11 3.761981047239428883e-05
1.581000000000000021e-09 1.470619631082054101e-06 5.726014178088476303e-11 6.095350986710739404e-05
3.971999999999999932e-09 3.694861084648016046e-06 2.210019573374265380e-10 8.628023653304385055e-05
5.000000000000000105e-09 4.651201787816927976e-06 3.071485916280120014e-10 9.387863480799757518e-05
9.975999999999999465e-09 9.280587964640925786e-06 8.385361004129998845e-10 1.356922228656245837e-04
1.989999999999999952e-08 1.851419242998081003e-05 2.287763168863418088e-09 1.782101978513718314e-04
3.972999999999999908e-08 3.696699295748789187e-05 6.061583099087538954e-09 2.308134738384234820e-04
7.925999999999999637e-08 7.375765469301719828e-05 1.575347858094044765e-08 2.960532096713864875e-04
1.580999999999999930e-07 1.471491184379128891e-04 3.910429618672550719e-08 3.402859755131850544e-04
1.991000000000000027e-07 1.853209783927820692e-04 5.252045687899177454e-08 3.626488188833278743e-04
3.155999999999999938e-07 2.938002528823880299e-04 9.730770378831954314e-08 4.630767356912104081e-04
5.000999999999999849e-07 4.656344063839075714e-04 1.837494945860225819e-07 5.430301232045120323e-04
6.295999999999999732e-07 5.862651417037388971e-04 2.503103884558263872e-07 5.605192962670089638e-04
9.666999999999999941e-07 9.003386739730535665e-04 4.324450868778576936e-07 5.993081670211623108e-04
1.531999999999999901e-06 1.427170885631398036e-03 7.780217275717420968e-07 7.125938556504039095e-04
2.506999999999999883e-06 2.336134972129507662e-03 1.471005394641589826e-06 8.121876172121876309e-04
3.974000000000000407e-06 3.704315759716615697e-03 2.695705763844323844e-06 9.780674166779417152e-04
4.830000000000000343e-06 4.502887798316278223e-03 3.503988717694660908e-06 1.046253037768318664e-03
6.080999999999999885e-06 5.670217999231269741e-03 4.731126407333307547e-06 1.056224360839501646e-03
7.930000000000000308e-06 7.396012414119570652e-03 6.599662989063778187e-06 1.109203753630785610e-03
9.982000000000000313e-06 9.311815711689977113e-03 8.879881089227186733e-06 1.271216815433141075e-03
1.256999999999999993e-05 1.172874412604260098e-02 1.207676739913533738e-05 1.374195438212825332e-03
1.521999999999999997e-05 1.420427250933824909e-02 1.547541302213394990e-05 1.371610497379100249e-03
1.991000000000000080e-05 1.858690797761085312e-02 2.160710455847765458e-05 1.426578142835871997e-03
2.506999999999999883e-05 2.341050104039446925e-02 2.908031724375689851e-05 1.672007475975408053e-03
2.790999999999999875e-05 2.606604784714952258e-02 3.357009132255487721e-05 1.709425557744154774e-03
3.806999999999999973e-05 3.556967988784798945e-02 4.986781576435106434e-05 1.720407281314112165e-03
5.063000000000000145e-05 4.732434580343149871e-02 7.073400252905581275e-05 1.829889149838781265e-03
6.592000000000000583e-05 6.164112392498975052e-02 9.765037643900635188e-05 1.930242980462695823e-03
8.433000000000000066e-05 7.888776783401378612e-02 1.317235490470395893e-04 2.021055815200022837e-03
1.062000000000000064e-04 9.938561165478684845e-02 1.740088341640037047e-04 2.104789529260958983e-03
1.321000000000000126e-04 1.236720406455826121e-01 2.260189757651373944e-04 2.178291718403657477e-03
1.623999999999999901e-04 1.520974545104751274e-01 2.888169908545388338e-04 2.240170365918073281e-03
1.689999999999999879e-04 1.582907717069566844e-01 3.027354772999506964e-04 2.254509350360745651e-03
1.758999999999999930e-04 1.647661861691531171e-01 3.173785841705756782e-04 2.268169273277113179e-03
1.830000000000000029e-04 1.714298948183871907e-01 3.325196584577469103e-04 2.276170334580628063e-03
1.901999999999999882e-04 1.781880600978280049e-01 3.479577791899843742e-04 2.292561569242367037e-03
1.977000000000000079e-04 1.852284385240466902e-01 3.641242634600037713e-04 2.299943765467868384e-03
2.054000000000000053e-04 1.924572004474696396e-01 3.808304060475003897e-04 2.322187632288155723e-03
2.079000000000000119e-04 1.948043378760714872e-01 3.864137987380476553e-04 2.435429768083530178e-03
2.081999999999999921e-04 1.950859988578999005e-01 3.870314100985603909e-04 1.950065624557156818e-03
2.090999999999999868e-04 1.959309855029948977e-01 3.881261957135444685e-04 6.411875526909013856e-04
2.159999999999999919e-04 2.024093317906446865e-01 3.940874488768042125e-04 1.199166870571831411e-03
2.231000000000000019e-04 2.090756740932291913e-01 4.013938420547467825e-04 9.928616047829054436e-04
2.311000000000000066e-04 2.165873044433437034e-01 4.085241694843774404e-04 9.056166966301716637e-04
2.401000000000000085e-04 2.250381721984245909e-01 4.159700687886608468e-04 8.565463878902855599e-04
2.500000000000000052e-04 2.343344406330727658e-01 4.237602369176299592e-04 8.194318812157330018e-04
2.642999999999999733e-04 2.477629128650125634e-01 4.345596643180389446e-04 7.890063723638815647e-04
3.052999999999999941e-04 2.862671839140227270e-01 4.644058706720978241e-04 7.612775562167708662e-04
3.533000000000000224e-04 3.313503829113090826e-01 4.987577676308450197e-04 7.626578558207241024e-04
4.075999999999999871e-04 3.823564017794535141e-01 5.381334366106255759e-04 7.813048116943254948e-04
4.679999999999999915e-04 4.390986251953180042e-01 5.832692638200615834e-04 8.096035963157804938e-04
5.341000000000000261e-04 5.012024644415256081e-01 6.346556894078133086e-04 8.452514814113673558e-04
6.059000000000000366e-04 5.686690698184251325e-01 6.930641302632923034e-04 8.862253587289389486e-04
7.661000000000000275e-04 7.192254882508629654e-01 8.328184776562496576e-04 9.702780530519144065e-04
1.262000000000000101e-03 1.185459127778160093e+00 1.338484980802662205e-03 1.198863597978450275e-03
1.894999999999999983e-03 1.780909071169781921e+00 2.123481960401060308e-03 1.437771491635827115e-03
2.673000000000000029e-03 2.513147344746868850e+00 3.261860252001994032e-03 1.671524566936786766e-03
3.605999999999999830e-03 3.391736073717691369e+00 4.828136641022434151e-03 1.893900408978071038e-03
4.709999999999999777e-03 4.431905410739045870e+00 6.903512974832482635e-03 2.096551352830673849e-03
7.496000000000000059e-03 7.058993649504918366e+00 1.289742191321638018e-02 2.466596387205546859e-03
1.119999999999999989e-02 1.055540362104863661e+01 2.212077014004794340e-02 2.809304433764861584e-03
1.600000000000000033e-02 1.509117352747679952e+01 3.559566804390756900e-02 3.132325055719984222e-03
2.206999999999999934e-02 2.083310616724802244e+01 5.457322122755020599e-02 3.477840948757840792e-03
2.947999999999999926e-02 2.785007348564149154e+01 8.049103664263126956e-02 3.909302116317729670e-03
4.268000000000000266e-02 4.036707211535221518e+01 1.353887601042819133e-01 4.862066536253286525e-03
6.219999999999999835e-02 5.891246509830522626e+01 2.419691225623893105e-01 6.630786177272363080e-03
7.316999999999999893e-02 6.935151695866235855e+01 3.161896974764099033e-01 7.588671314871411888e-03
7.595999999999999974e-02 7.200836722020332559e+01 3.371250777904805096e-01 8.170805199905810390e-03
7.685877551020407761e-02 7.286441684614264602e+01 3.442140056542854487e-01 8.391140964392512086e-03
7.775755102040816935e-02 7.372055050702806511e+01 3.514980764154898574e-01 8.625048908188260449e-03
7.865632653061224722e-02 7.457676955326559209e+01 3.589887713518678525e-01 8.872086497469122701e-03
7.955510204081632508e-02 7.543307543347205524e+01 3.666971980752372628e-01 9.131811198411174738e-03
8.045387755102040295e-02 7.628946968692402208e+01 3.746340905180247649e-01 9.403780477190488984e-03
8.135265306122449469e-02 7.714595393634458276e+01 3.828098089184057140e-01 9.687551799983139603e-03
8.225142857142857256e-02 7.800252988100852747e+01 3.912343398022385399e-01 9.982682632965192079e-03
8.315020408163265042e-02 7.885919929014869467e+01 3.999172959601842714e-01 1.028873044231271884e-02
8.404897959183672829e-02 7.971596399664706212e+01 4.088679164185550774e-01 1.060525269420180099e-02
8.494775510204082003e-02 8.057282589099574466e+01 4.180950664025863128e-01 1.093180685480850921e-02
8.584653061224489790e-02 8.142978691551245163e+01 4.276072372909587305e-01 1.126795039030890379e-02
8.674530612244897576e-02 8.228684905879850930e+01 4.374125465605280816e-01 1.161324076687906756e-02
8.764408163265305363e-02 8.314401435042523758e+01 4.475187377203325156e-01 1.196723545069507469e-02
8.854285714285714537e-02 8.400128485583823590e+01 4.579331802340640967e-01 1.232949190793299586e-02
8.944163265306122323e-02 8.485866267146681707e+01 4.686628694302891751e-01 1.269956760476889483e-02
9.034040816326530110e-02 8.571614992003031830e+01 4.797144263998030511e-01 1.307702000737885097e-02
9.123918367346939284e-02 8.657374874602895432e+01 4.910940978795901857e-01 1.346140658193893842e-02
9.213795918367347071e-02 8.743146131141152466e+01 5.028077561229480352e-01 1.385228479462522269e-02
9.303673469387754857e-02 8.828928979141150535e+01 5.148608987554145200e-01 1.424921211161377967e-02
9.393551020408162644e-02 8.914723637054137839e+01 5.272586486162059716e-01 1.465174599908068351e-02
9.483428571428570431e-02 9.000530323873982752e+01 5.400057535849501766e-01 1.505944392320199970e-02
9.573306122448979605e-02 9.086349258766230719e+01 5.531065863935594740e-01 1.547186335015381803e-02
9.663183673469387391e-02 9.172180660711011058e+01 5.665651444231515343e-01 1.588856174611218836e-02
9.753061224489795178e-02 9.258024748158902639e+01 5.803850494859871256e-01 1.630909657725319178e-02
9.842938775510204352e-02 9.343881738699452910e+01 5.945695475924404061e-01 1.673302530975290942e-02
9.932816326530612139e-02 9.429751848741375397e+01 6.091215087030774633e-01 1.715990540978739806e-02
1.002269387755101993e-01 9.515635293204297795e+01 6.240434264659640018e-01 1.758929434353273882e-02
1.011257142857142910e-01 9.601532285221159668e+01 6.393374179393654932e-01 1.802074957716500933e-02
1.020244897959183689e-01 9.687443035851060813e+01 6.550052233000508428e-01 1.845382857686026987e-02
1.029232653061224467e-01 9.773367753801863955e+01 6.710482055374527022e-01 1.888808880879459112e-02
1.038220408163265246e-01 9.859306645162287452e+01 6.874673501339684245e-01 1.932308773914406114e-02
1.047208163265306025e-01 9.945259913142974995e+01 7.042632647317315087e-01 1.975838283408473672e-02
1.056195918367346942e-01 1.003122775782612024e+02 7.214361787862122455e-01 2.019353155979270939e-02
1.065183673469387721e-01 1.011721037592339627e+02 7.389859432070404743e-01 2.062809138244402901e-02
1.074171428571428499e-01 1.020320796054164560e+02 7.569120299864783297e-01 2.106161976821477669e-02
1.083159183673469417e-01 1.028922070095621137e+02 7.752135318159921740e-01 2.149367418328103005e-02
1.092146938775510195e-01 1.037524878239132278e+02 7.938891616914096616e-01 2.192381209381885285e-02
1.101134693877550974e-01 1.046129238580757033e+02 8.129372525071724143e-01 2.235159096600432271e-02
1.110122448979591891e-01 1.054735168769577598e+02 8.323557566402153274e-01 2.277656826601352075e-02
1.119110204081632531e-01 1.063342685987738463e+02 8.521422455240338367e-01 2.319830146002248988e-02
1.128097959183673449e-01 1.071951806931080284e+02 8.722939092135260086e-01 2.361634801420733204e-02
1.137085714285714227e-01 1.080562547790356263e+02 8.928075559412030904e-01 2.403026539474410403e-02
1.146073469387755006e-01 1.089174924233016384e+02 9.136796116654086752e-01 2.443961106780888348e-02
1.155061224489795924e-01 1.097788951385518033e+02 9.349061196111816407e-01 2.484394249957775497e-02
1.164048979591836702e-01 1.106404643816154447e+02 9.564827398044318807e-01 2.524281715622676142e-02
1.173036734693877481e-01 1.115022015518377998e+02 9.784047486001173910e-01 2.563579250393200129e-02
1.182024489795918398e-01 1.123641079894594696e+02 1.000667038205117265e+00 2.602242600886953486e-02
1.191012244897959177e-01 1.132261849740423543e+02 1.023264116196523466e+00 2.640227513721542935e-02
1.199999999999999956e-01 1.140884337229381913e+02 1.046190105036089557e+00 2.677489735514577279e-02
1.226020364816653024e-01 1.165857046297685287e+02 1.114366225862610360e+00 2.782534437801185631e-02
1.252040729633306093e-01 1.190844507092500919e+02 1.185213722056127184e+00 2.888083061398630594e-02
1.278061094449959023e-01 1.215846969798077737e+02 1.258747581831263673e+00 2.994019390939698169e-02
1.304081459266612231e-01 1.240864677176640782e+02 1.334979970087306622e+00 3.100227797571910443e-02
1.330101824083265161e-01 1.265897864449774772e+02 1.413920233207558663e+00 3.206593252063451999e-02
1.356122188899918091e-01 1.290946759190031230e+02 1.495574903832332714e+00 3.313001331988803949e-02
1.382142553716571298e-01 1.316011581221753772e+02 1.579947705483199405e+00 3.419338223208884947e-02
1.408162918533224228e-01 1.341092542530221579e+02 1.667039556920435928e+00 3.525490715834790623e-02
1.434183283349877158e-01 1.366189847178275727e+02 1.756848576119298233e+00 3.631346194841572617e-02
1.460203648166530366e-01 1.391303691229678634e+02 1.849370083753823613e+00 3.736792625479017083e-02
1.486224012983183296e-01 1.416434262678499465e+02 1.944596606079518120e+00 3.841718533608970421e-02
1.512244377799836226e-01 1.441581741383894553e+02 2.042517877108478430e+00 3.946012981083502763e-02
1.538264742616489433e-01 1.466746299009676022e+02 2.143120839972283864e+00 4.049565536264546767e-02
1.564285107433142363e-01 1.491928098968122640e+02 2.246389647369502196e+00 4.152266239773414608e-02
1.590305472249795571e-01 1.517127296367526981e+02 2.352305660995817504e+00 4.254005565545866674e-02
1.616325837066448501e-01 1.542344037962984373e+02 2.460847449855783964e+00 4.354674377270859736e-02
1.642346201883101431e-01 1.567578462109983093e+02 2.571990787355745045e+00 4.454163880243905416e-02
1.668366566699754638e-01 1.592830698720369185e+02 2.685708647077986289e+00 4.552365568721497557e-02
1.694386931516407568e-01 1.618100869220294840e+02 2.801971197136622127e+00 4.649171168790678516e-02
1.720407296333060776e-01 1.643389086509763786e+02 2.920745793015618208e+00 4.744472576799476510e-02
1.746427661149713706e-01 1.668695454923412456e+02 3.041996968789374201e+00 4.838161793373961517e-02
1.772448025966366636e-01 1.694020070192205196e+02 3.165686426626143302e+00 4.930130853042959810e-02
1.798468390783019566e-01 1.719363019405695638e+02 3.291773024474180076e+00 5.020271749485270135e-02
1.824488755599672773e-01 1.744724380974551821e+02 3.420212761830113468e+00 5.108476356408322289e-02
1.850509120416325981e-01 1.770104224593050048e+02 3.550958763488471615e+00 5.194636344061471372e-02
1.876529485232978911e-01 1.795502611201247021e+02 3.683961261170666912e+00 5.278643091381633734e-02
1.902549850049631841e-01 1.820919592946534920e+02 3.819167572930997512e+00 5.360387593763856623e-02
1.928570214866284771e-01 1.846355213144338450e+02 3.956522080236424266e+00 5.439760366444093553e-02
1.954590579682937979e-01 1.871809506237673588e+02 4.095966202616021512e+00 5.516651343476840913e-02
1.980610944499590909e-01 1.897282497755304576e+02 4.237438369775038183e+00 5.590949772285440378e-02
2.006631309316244116e-01 1.922774204268282574e+02 4.380873991067577577e+00 5.662544103758474640e-02
2.032651674132897046e-01 1.948284633344584336e+02 4.526205422220802355e+00 5.731321877861305508e-02
2.058672038949549976e-01 1.973813783501636294e+02 4.673361929202619613e+00 5.797169604727929471e-02
2.084692403766203184e-01 1.999361644156488467e+02 4.822269649123649415e+00 5.859972641194371307e-02
2.110712768582856114e-01 2.024928195573400274e+02 4.972851548063262683e+00 5.919615062731473781e-02
2.136733133399509321e-01 2.050513408808610052e+02 5.125027375708419264e+00 5.975979530731705125e-02
2.162753498216162251e-01 2.076117245652077088e+02 5.278713616692937372e+00 6.028947155101720135e-02
2.188773863032815181e-01 2.101739658565966238e+02 5.433823438523920579e+00 6.078397352110205543e-02
2.214794227849468111e-01 2.127380590619648615e+02 5.590266635981038235e+00 6.124207697438171366e-02
2.240814592666121319e-01 2.153039975421017687e+02 5.747949571873560259e+00 6.166253774377900010e-02
2.266834957482774526e-01 2.178717737043891418e+02 5.906775114039233721e+00 6.204409017125397940e-02
2.292855322299427456e-01 2.204413789951304352e+02 6.066642568468483709e+00 6.238544549111327969e-02
2.318875687116080386e-01 2.230128038914440651e+02 6.227447608436897042e+00 6.268529016315693703e-02
2.344896051932733316e-01 2.255860378927054057e+02 6.389082199528631101e+00 6.294228415513000718e-02
2.370916416749386524e-01 2.281610695115092255e+02 6.551434520433307540e+00 6.315505917396806168e-02
2.396936781566039454e-01 2.307378862641396893e+02 6.714388879399042054e+00 6.332221684535997708e-02
2.422957146382692661e-01 2.333164746605191908e+02 6.877825626224752575e+00 6.344232684119509302e-02
2.448977511199345591e-01 2.358968201936212381e+02 7.041621059675531313e+00 6.351392495452010123e-02
2.474997876015998521e-01 2.384789073283235155e+02 7.205647330206118362e+00 6.353551112170501003e-02
3.240814245893223200e-01 3.166267846493760203e+02 2.562921452537965905e+01 3.958779620217035000e-01
4.006630615770447879e-01 4.011889110605479232e+02 5.963497044849414408e+01 4.086523071092403869e-01
4.772446985647672002e-01 4.926610775628601004e+02 9.791913527699725250e+01 4.281394409992923533e-01
5.538263355524897236e-01 5.909906798999834336e+02 1.505833308549592289e+02 6.314860819063093933e-01
6.304079725402120804e-01 6.978655067482997083e+02 2.145030107528326653e+02 5.691838218724297738e-01
7.069896095279345483e-01 8.122474388776649903e+02 2.714889167827041092e+02 4.334813171383392616e-01
7.835712465156570161e-01 9.320737527412727559e+02 3.150804012136895267e+02 2.977788124042488049e-01
8.601528835033794840e-01 1.055393090563077976e+03 3.433202240103602776e+02 1.620763076701583483e-01
9.367345204911019518e-01 1.180701915316440818e+03 3.609186206814338789e+02 1.191212771414880828e-01
1.013316157478824309e+00 1.307414230799086454e+03 3.782985446339758937e+02 1.549989836865661996e-01
1.089897794466546888e+00 1.435615098715555632e+03 4.004846742712539935e+02 1.908766902316444414e-01
1.166479431454269244e+00 1.565543255186772967e+03 4.276335871696956019e+02 2.267543967767225721e-01
1.243061068441991601e+00 1.697416968151533183e+03 4.599226017746768207e+02 2.626321033218006473e-01
1.319642705429714180e+00 1.831439066888506886e+03 4.975482375873728529e+02 2.985098098668789168e-01
1.396224342417436759e+00 1.967800724812214639e+03 5.407251876882467059e+02 3.343875164119571308e-01
1.472805979405159116e+00 2.106684363191875036e+03 5.896856630564601573e+02 3.702652229570352893e-01
1.549387616392881473e+00 2.248265922105160826e+03 6.446790140518627368e+02 4.061429295021133923e-01
1.625969253380604052e+00 2.392716667644427616e+03 7.059715638943505382e+02 4.420206360471916063e-01
1.702550890368326408e+00 2.540204653841642539e+03 7.738466084006355459e+02 4.778983425922697648e-01
1.779132527356048987e+00 2.690895923936758209e+03 8.486045493501370629e+02 5.137760491373479788e-01
1.855714164343771344e+00 2.844955512481936239e+03 9.305631378921257237e+02 5.496537556824261372e-01
1.932295801331493923e+00 3.002548293663322511e+03 1.020057810761170686e+03 5.855314622275042957e-01
2.008877438319216502e+00 3.163839709809804845e+03 1.117442106614928889e+03 6.214091687725824542e-01
2.085459075306938637e+00 3.328996405849586154e+03 1.223088153115674459e+03 6.572868753176606127e-01
