# density  energy_density  pressure   sound_speed_squared  [All in nuclear units]
2.720000000000000022e-14 2.529924618736292620e-11 1.061056609100270887e-19 3.766610435412189122e-08
1.269999999999999890e-13 1.181251617980081254e-10 4.870113551826584858e-18 6.497781477172163475e-08
6.929999999999999754e-13 6.445728594625782745e-10 1.018299070687946017e-16 3.033770597342807186e-07
6.295000000000000137e-12 5.855111460395753757e-09 5.487150723824490656e-15 1.763710043904196507e-06
1.581000000000000150e-11 1.470523320212576141e-08 2.904239460150760759e-14 3.559434472327477622e-06
3.971999999999999958e-11 3.694456170323160790e-08 1.439340266754906811e-13 6.772854871245677111e-06
9.975999999999999982e-11 9.278976412613005154e-08 6.812143616221268841e-13 1.246890511177539320e-05
2.505999999999999928e-10 2.330928829758143313e-07 3.107749196951638608e-12 2.212095130576091967e-05
6.294000000000000186e-10 5.854398883216247602e-07 1.363250409771533549e-11 3.761981047239428883e-05
1.581000000000000021e-09 1.470619631082054101e-06 5.726014178088476303e-11 6.095350986710739404e-05
3.971999999999999932e-09 3.694861084648016046e-06 2.210019573374265380e-10 8.628023653304385055e-05
5.000000000000000105e-09 4.651201787816927976e-06 3.071485916280120014e-10 9.387863480799757518e-05
9.975999999999999465e-09 9.280587964640925786e-06 8.385361004129998845e-10 1.356922228656245837e-04
1.989999999999999952e-08 1.851419242998081003e-05 2.287763168863418088e-09 1.782101978513718314e-04
3.972999999999999908e-08 3.696699295748789187e-05 6.061583099087538954e-09 2.308134738384234820e-04
7.925999999999999637e-08 7.375765469301719828e-05 1.575347858094044765e-08 2.960532096713864875e-04
1.580999999999999930e-07 1.471491184379128891e-04 3.910429618672550719e-08 3.402859755131850544e-04
1.991000000000000027e-07 1.853209783927820692e-04 5.252045687899177454e-08 3.626488188833278743e-04
3.155999999999999938e-07 2.938002528823880299e-04 9.730770378831954314e-08 4.630767356912104081e-04
5.000999999999999849e-07 4.656344063839075714e-04 1.837494945860225819e-07 5.430301232045120323e-04
6.295999999999999732e-07 5.862651417037388971e-04 2.503103884558263872e-07 5.605192962670089638e-04
9.666999999999999941e-07 9.003386739730535665e-04 4.324450868778576936e-07 5.993081670211623108e-04
1.531999999999999901e-06 1.427170885631398036e-03 7.780217275717420968e-07 7.125938556504039095e-04
2.506999999999999883e-06 2.336134972129507662e-03 1.471005394641589826e-06 8.121876172121876309e-04
3.974000000000000407e-06 3.704315759716615697e-03 2.695705763844323844e-06 9.780674166779417152e-04
4.830000000000000343e-06 4.502887798316278223e-03 3.503988717694660908e-06 1.046253037768318664e-03
6.080999999999999885e-06 5.670217999231269741e-03 4.731126407333307547e-06 1.056224360839501646e-03
7.930000000000000308e-06 7.396012414119570652e-03 6.599662989063778187e-06 1.109203753630785610e-03
9.982000000000000313e-06 9.311815711689977113e-03 8.879881089227186733e-06 1.271216815433141075e-03
1.256999999999999993e-05 1.172874412604260098e-02 1.207676739913533738e-05 1.374195438212825332e-03
1.521999999999999997e-05 1.420427250933824909e-02 1.547541302213394990e-05 1.371610497379100249e-03
1.991000000000000080e-05 1.858690797761085312e-02 2.160710455847765458e-05 1.426578142835871997e-03
2.506999999999999883e-05 2.341050104039446925e-02 2.908031724375689851e-05 1.672007475975408053e-03
2.790999999999999875e-05 2.606604784714952258e-02 3.357009132255487721e-05 1.709425557744154774e-03
3.806999999999999973e-05 3.556967988784798945e-02 4.986781576435106434e-05 1.720407281314112165e-03
5.063000000000000145e-05 4.732434580343149871e-02 7.073400252905581275e-05 1.829889149838781265e-03
6.592000000000000583e-05 6.164112392498975052e-02 9.765037643900635188e-05 1.930242980462695823e-03
8.433000000000000066e-05 7.888776783401378612e-02 1.317235490470395893e-04 2.021055815200022837e-03
1.062000000000000064e-04 9.938561165478684845e-02 1.740088341640037047e-04 2.104789529260958983e-03
1.321000000000000126e-04 1.236720406455826121e-01 2.260189757651373944e-04 2.178291718403657477e-03
1.623999999999999901e-04 1.520974545104751274e-01 2.888169908545388338e-04 2.240170365918073281e-03
1.689999999999999879e-04 1.582907717069566844e-01 3.027354772999506964e-04 2.254509350360745651e-03
1.758999999999999930e-04 1.647661861691531171e-01 3.173785841705756782e-04 2.268169273277113179e-03
1.830000000000000029e-04 1.714298948183871907e-01 3.325196584577469103e-04 2.276170334580628063e-03
1.901999999999999882e-04 1.781880600978280049e-01 3.479577791899843742e-04 2.292561569242367037e-03
1.977000000000000079e-04 1.852284385240466902e-01 3.641242634600037713e-04 2.299943765467868384e-03
2.054000000000000053e-04 1.924572004474696396e-01 3.808304060475003897e-04 2.322187632288155723e-03
2.079000000000000119e-04 1.948043378760714872e-01 3.864137987380476553e-04 2.435429768083530178e-03
2.081999999999999921e-04 1.950859988578999005e-01 3.870314100985603909e-04 1.950065624557156818e-03
2.090999999999999868e-04 1.959309855029948977e-01 3.881261957135444685e-04 6.411875526909013856e-04
2.159999999999999919e-04 2.024093317906446865e-01 3.940874488768042125e-04 1.199166870571831411e-03
2.231000000000000019e-04 2.090756740932291913e-01 4.013938420547467825e-04 9.928616047829054436e-04
2.311000000000000066e-04 2.165873044433437034e-01 4.085241694843774404e-04 9.056166966301716637e-04
2.401000000000000085e-04 2.250381721984245909e-01 4.159700687886608468e-04 8.565463878902855599e-04
2.500000000000000052e-04 2.343344406330727658e-01 4.237602369176299592e-04 8.194318812157330018e-04
2.642999999999999733e-04 2.477629128650125634e-01 4.345596643180389446e-04 7.890063723638815647e-04
3.052999999999999941e-04 2.862671839140227270e-01 4.644058706720978241e-04 7.612775562167708662e-04
3.533000000000000224e-04 3.313503829113090826e-01 4.987577676308450197e-04 7.626578558207241024e-04
4.075999999999999871e-04 3.823564017794535141e-01 5.381334366106255759e-04 7.813048116943254948e-04
4.679999999999999915e-04 4.390986251953180042e-01 5.832692638200615834e-04 8.096035963157804938e-04
5.341000000000000261e-04 5.012024644415256081e-01 6.346556894078133086e-04 8.452514814113673558e-04
6.059000000000000366e-04 5.686690698184251325e-01 6.930641302632923034e-04 8.862253587289389486e-04
7.661000000000000275e-04 7.192254882508629654e-01 8.328184776562496576e-04 9.702780530519144065e-04
1.262000000000000101e-03 1.185459127778160093e+00 1.338484980802662205e-03 1.198863597978450275e-03
1.894999999999999983e-03 1.780909071169781921e+00 2.123481960401060308e-03 1.437771491635827115e-03
2.673000000000000029e-03 2.513147344746868850e+00 3.261860252001994032e-03 1.671524566936786766e-03
3.605999999999999830e-03 3.391736073717691369e+00 4.828136641022434151e-03 1.893900408978071038e-03
4.709999999999999777e-03 4.431905410739045870e+00 6.903512974832482635e-03 2.096551352830673849e-03
7.496000000000000059e-03 7.058993649504918366e+00 1.289742191321638018e-02 2.466596387205546859e-03
1.119999999999999989e-02 1.055540362104863661e+01 2.212077014004794340e-02 2.809304433764861584e-03
1.600000000000000033e-02 1.509117352747679952e+01 3.559566804390756900e-02 3.132325055719984222e-03
2.206999999999999934e-02 2.083310616724802244e+01 5.457322122755020599e-02 3.477840948757840792e-03
2.947999999999999926e-02 2.785007348564149154e+01 8.049103664263126956e-02 3.909302116317729670e-03
4.268000000000000266e-02 4.036707211535221518e+01 1.353887601042819133e-01 4.862066536253286525e-03
6.219999999999999835e-02 5.891246509830522626e+01 2.419691225623893105e-01 6.630786177272363080e-03
7.316999999999999893e-02 6.935151695866235855e+01 3.161896974764099033e-01 7.588671314871411888e-03
7.595999999999999974e-02 7.200836722020332559e+01 3.371250777904805096e-01 8.170805199905812125e-03
7.685877551020407761e-02 7.286441683976626393e+01 3.442129144186270029e-01 8.388591745873631017e-03
7.775755102040816935e-02 7.372055046423487568e+01 3.514929198069390304e-01 8.618102022211535443e-03
7.865632653061224722e-02 7.457676940053030989e+01 3.589749320344550187e-01 8.858754448702351250e-03
7.955510204081632508e-02 7.543307503531947589e+01 3.666682957337665250e-01 9.109967445128925104e-03
8.045387755102040295e-02 7.628946882673663765e+01 3.745818619812148476e-01 9.371159431274094995e-03
8.135265306122449469e-02 7.714595229647319741e+01 3.827239881797280252e-01 9.641748826920704118e-03
8.225142857142857256e-02 7.800252702221600032e+01 3.911025379326464324e-01 9.921154051851581793e-03
8.315020408163265042e-02 7.885919463041470578e+01 3.997248809070941822e-01 1.020879352584956948e-02
8.404897959183672829e-02 7.971595678936036222e+01 4.085978926856429494e-01 1.050408566869750690e-02
8.494775510204082003e-02 8.057281520255824603e+01 4.177279546051984593e-01 1.080644890017823725e-02
8.584653061224489790e-02 8.142977160237973067e+01 4.271209535822040326e-01 1.111530164007458812e-02
8.674530612244897576e-02 8.228682774397762500e+01 4.367822819234142839e-01 1.143006230816940617e-02
8.764408163265305363e-02 8.314398539945234745e+01 4.467168371216344025e-01 1.175014932424552939e-02
8.854285714285714537e-02 8.400124635225449765e+01 4.569290216359597756e-01 1.207498110808580098e-02
8.944163265306122323e-02 8.485861239181306814e+01 4.674227426561753940e-01 1.240397607947304678e-02
9.034040816326530110e-02 8.571608530837657725e+01 4.782014118510963807e-01 1.273655265819011173e-02
9.123918367346939284e-02 8.657366688805737454e+01 4.892679451007385660e-01 1.307212926401983555e-02
9.213795918367347071e-02 8.743135890806803445e+01 5.006247622123156660e-01 1.341012431674505970e-02
9.303673469387754857e-02 8.828916313214138256e+01 5.122737866201582113e-01 1.374995623614861176e-02
9.393551020408162644e-02 8.914708130612412162e+01 5.242164450697376354e-01 1.409104344201334361e-02
9.483428571428570431e-02 9.000511515373585780e+01 5.364536672860700239e-01 1.443280435412208108e-02
9.573306122448979605e-02 9.086326637248622262e+01 5.489858856268525766e-01 1.477465739225767780e-02
9.663183673469387391e-02 9.172153662974145050e+01 5.618130347207627162e-01 1.511602097620296306e-02
9.753061224489795178e-02 9.257992755893423009e+01 5.749345510914254387e-01 1.545631352574076967e-02
9.842938775510204352e-02 9.343844075590990883e+01 5.883493727676168961e-01 1.579495346065394948e-02
9.932816326530612139e-02 9.429707777540157565e+01 6.020559388803404799e-01 1.613135920072533008e-02
1.002269387755101993e-01 9.515584012763022770e+01 6.160521892474739580e-01 1.646494916573775988e-02
1.011257142857142910e-01 9.601472927502250343e+01 6.303355639467380644e-01 1.679514177547406992e-02
1.020244897959183689e-01 9.687374662904136358e+01 6.449030028777956725e-01 1.712135544971709819e-02
1.029232653061224467e-01 9.773289354712426302e+01 6.597509453143435287e-01 1.744300860824968269e-02
1.038220408163265246e-01 9.859217132972494824e+01 6.748753294471011577e-01 1.775951967085466834e-02
1.047208163265306025e-01 9.945158121745311064e+01 6.902715919186541704e-01 1.807030705731488968e-02
1.056195918367346942e-01 1.003111243883084711e+02 7.059346673511504022e-01 1.837478918741319162e-02
1.065183673469387721e-01 1.011708019550049471e+02 7.218589878678876026e-01 1.867238448093239828e-02
1.074171428571428499e-01 1.020306149623813496e+02 7.380384826098764783e-01 1.896251135765536153e-02
1.083159183673469417e-01 1.028905643848936364e+02 7.544665772484929755e-01 1.924458823736491589e-02
1.092146938775510195e-01 1.037506511241880247e+02 7.711361934953753217e-01 1.951803353984390282e-02
1.101134693877550974e-01 1.046108760067485122e+02 7.880397486107564298e-01 1.978226568487514991e-02
1.110122448979591891e-01 1.054712397816175553e+02 8.051691549114488033e-01 2.003670309224150903e-02
1.119110204081632531e-01 1.063317431181870347e+02 8.225158192797344947e-01 2.028076418172580428e-02
1.128097959183673449e-01 1.071923866040559687e+02 8.400706426744476429e-01 2.051386737311089448e-02
1.137085714285714227e-01 1.080531707429522328e+02 8.578240196455489963e-01 2.073543108617960026e-02
1.146073469387755006e-01 1.089140959527169770e+02 8.757658378535420063e-01 2.094487374071476657e-02
1.155061224489795924e-01 1.097751625633476920e+02 8.938854775950850762e-01 2.114161375649923139e-02
1.164048979591836702e-01 1.106363708150989424e+02 9.121718113361907410e-01 2.132506955331583617e-02
1.173036734693877481e-01 1.114977208566382956e+02 9.306132032544269794e-01 2.149465955094741892e-02
1.182024489795918398e-01 1.123592127432550143e+02 9.491975087915502929e-01 2.164980216917681416e-02
1.191012244897959177e-01 1.132208464351201940e+02 9.679120742180293835e-01 2.178991582778686334e-02
1.199999999999999956e-01 1.140826217955954718e+02 9.867437362109391374e-01 2.191441894656040446e-02
1.215754850004441001e-01 1.155935896211800298e+02 1.019998334590843436e+00 2.210317993119144744e-02
1.231509700008882047e-01 1.171049902790003756e+02 1.053543812387217615e+00 2.228672772738660851e-02
1.247264550013323231e-01 1.186168219032147135e+02 1.087372359842867731e+00 2.246499926070098796e-02
1.263019400017764138e-01 1.201290825758226646e+02 1.121476065174215497e+00 2.263793453527631130e-02
1.278774250022205461e-01 1.216417703273723987e+02 1.155846919079171364e+00 2.280547652388736218e-02
1.294529100026646506e-01 1.231548831376877331e+02 1.190476819089622440e+00 2.296757105740255059e-02
1.310283950031087552e-01 1.246684189366119142e+02 1.225357573767356323e+00 2.312416671379902144e-02
1.326038800035528598e-01 1.261823756047644878e+02 1.260480906742387219e+00 2.327521470684562263e-02
1.341793650039969643e-01 1.276967509743103335e+02 1.295838460592845687e+00 2.342066877455758339e-02
1.357548500044410689e-01 1.292115428297362598e+02 1.331421800565727676e+00 2.356048506752050214e-02
1.373303350048851734e-01 1.307267489086343062e+02 1.367222418137943540e+00 2.369462203717382157e-02
1.389058200053293057e-01 1.322423669024885555e+02 1.403231734417240695e+00 2.382304032413798747e-02
1.404813050057734103e-01 1.337583944574647887e+02 1.439441103382696374e+00 2.394570264666433246e-02
1.420567900062175148e-01 1.352748291751993008e+02 1.475841814964602872e+00 2.406257368928204146e-02
1.436322750066616194e-01 1.367916686135862676e+02 1.512425097963664866e+00 2.417361999171172005e-02
1.452077600071057240e-01 1.383089102875621847e+02 1.549182122809550144e+00 2.427880983811282062e-02
1.467832450075498285e-01 1.398265516698840258e+02 1.586104004158931380e+00 2.437811314672736970e-02
1.483587300079939331e-01 1.413445901919031087e+02 1.623181803333256568e+00 2.447150135998155812e-02
1.499342150084380376e-01 1.428630232443289287e+02 1.660406530596580943e+00 2.455894733510355019e-02
1.515097000088821422e-01 1.443818481779855176e+02 1.697769147273892720e+00 2.464042523531482717e-02
1.530851850093262745e-01 1.459010623045565751e+02 1.735260567710450674e+00 2.471591042165082602e-02
1.546606700097703790e-01 1.474206628973201987e+02 1.772871661072747962e+00 2.478537934546640176e-02
1.562361550102144836e-01 1.489406471918703687e+02 1.810593252991814506e+00 2.484880944168092048e-02
1.578116400106585882e-01 1.504610123868258995e+02 1.848416127049644642e+00 2.490617902281810903e-02
1.593871250111026927e-01 1.519817556445239859e+02 1.886331026109651754e+00 2.495746717389606129e-02
1.609626100115467973e-01 1.535028740917000221e+02 1.924328653492130003e+00 2.500265364822427949e-02
1.625380950119909018e-01 1.550243648201511917e+02 1.962399673995810945e+00 2.504171876416507597e-02
1.641135800124350341e-01 1.565462248873827775e+02 2.000534714766694311e+00 2.507464330291891627e-02
1.656890650128791109e-01 1.580684513172375603e+02 2.038724366015438161e+00 2.510140840739542162e-02
1.672645500133232432e-01 1.595910411005085621e+02 2.076959181584713043e+00 2.512199548223331691e-02
1.688400350137673478e-01 1.611139911955316109e+02 2.115229679367997218e+00 2.513638609503660026e-02
1.704155200142114523e-01 1.626372985287598567e+02 2.153526341581467829e+00 2.514456187889629879e-02
1.719910050146555569e-01 1.641609599953192173e+02 2.191839614890696453e+00 2.514650443627120327e-02
1.735664900150996615e-01 1.656849724595432747e+02 2.230159910394039713e+00 2.514219524430468325e-02
1.751419750155437938e-01 1.672093327554882762e+02 2.268477603464713610e+00 2.513161556165915619e-02
1.767174600159878706e-01 1.687340376874273886e+02 2.306783033453698728e+00 2.511474633695395461e-02
1.782929450164320029e-01 1.702590840303249422e+02 2.345066503255777146e+00 2.509156811889768496e-02
1.798684300168761074e-01 1.717844685302875689e+02 2.383318278741123120e+00 2.506206096821142135e-02
1.814439150173202120e-01 1.733101879049965817e+02 2.421528588055093856e+00 2.502620437144470467e-02
1.830194000177643165e-01 1.748362388441161386e+02 2.459687620788981732e+00 2.498397715679261111e-02
1.845948850182084211e-01 1.763626180096810572e+02 2.497785527024714014e+00 2.493535741202844783e-02
1.861703700186525257e-01 1.778893220364633407e+02 2.535812416256663759e+00 2.488032240467362433e-02
1.877458550190966302e-01 1.794163475323143757e+02 2.573758356193946106e+00 2.481884850453372135e-02
1.893213400195407625e-01 1.809436910784880013e+02 2.611613371446791287e+00 2.475091110873725228e-02
1.908968250199848393e-01 1.824713492299385393e+02 2.649367442100812653e+00 2.467648456942138704e-02
1.924723100204289716e-01 1.839993185155994411e+02 2.687010502183249105e+00 2.459554212421858135e-02
1.940477950208730762e-01 1.855275954386377748e+02 2.724532438025474512e+00 2.450805582970563487e-02
1.956232800213171807e-01 1.870561764766879662e+02 2.761923086526401505e+00 2.441399649798667304e-02
1.971987650217612853e-01 1.885850580820629148e+02 2.799172233321629566e+00 2.431333363659233734e-02
2.748069534907049416e-01 2.653542338887131677e+02 1.203755974970670906e+01 2.124825937814665000e-01
3.524151419596485701e-01 3.462846148000438689e+02 3.319470553160784476e+01 3.071597848374099105e-01
4.300233304285921987e-01 4.328513492163667138e+02 6.404695112954658498e+01 4.018369758933533764e-01
5.076315188975358828e-01 5.259103618185557707e+02 1.060504082106162116e+02 4.965141669492968979e-01
5.852397073664794558e-01 6.262933328629508196e+02 1.608926981903582032e+02 5.911913580052402528e-01
6.628478958354231398e-01 7.348057795240492851e+02 2.284314237037803537e+02 6.505139400149876350e-01
7.404560843043667129e-01 8.517671235132086167e+02 3.010667490706225067e+02 5.951049515731436923e-01
8.180642727733103969e-01 9.762494164644429020e+02 3.715229499572749887e+02 5.396959631312998606e-01
8.956724612422540810e-01 1.107264474574136557e+03 4.384570203285693424e+02 4.842869746894559180e-01
9.732806497111976540e-01 1.243887810696075576e+03 5.007193818533631884e+02 4.288779862476120863e-01
1.050888838180141338e+00 1.385253632468899696e+03 5.571494725976856444e+02 3.708542161993584885e-01
1.128497026649085022e+00 1.530533938137419909e+03 6.065577000180794585e+02 3.103934707949711491e-01
1.206105215118028706e+00 1.678942500002844326e+03 6.480788592864639668e+02 2.499327253905838375e-01
1.283713403586972168e+00 1.829846418291783266e+03 6.850216489770732551e+02 2.398199310944578999e-01
1.361321592055915852e+00 1.983035522173685422e+03 7.246003190697286982e+02 2.765947091576899108e-01
1.438929780524859536e+00 2.138656329393512351e+03 7.705328079401687091e+02 3.133694872209218940e-01
1.516537968993803220e+00 2.296927053105722280e+03 8.230704174167102565e+02 3.501442652841538772e-01
1.594146157462746904e+00 2.458056927242835627e+03 8.824852415457122561e+02 3.869190433473859159e-01
1.671754345931690366e+00 2.622248524904490296e+03 9.490697815381188320e+02 4.236938214106177325e-01
1.749362534400634051e+00 2.789699632598556491e+03 1.023136791844848062e+03 4.604685994738497712e-01
1.826970722869577735e+00 2.960604788361232295e+03 1.105019310740000492e+03 4.972433775370818099e-01
1.904578911338521419e+00 3.135156562457094878e+03 1.195070841594014382e+03 5.340181556003137375e-01
1.982187099807465103e+00 3.313546638870152492e+03 1.293665660034201210e+03 5.707929336635457762e-01
2.059795288276408787e+00 3.495966741242209537e+03 1.401199228648611097e+03 6.075677117267777039e-01
