# density  energy_density  pressure   sound_speed_squared  [All in nuclear units]
2.720000000000000022e-14 2.529924618736292620e-11 1.061056609100270887e-19 3.766610435412189122e-08
1.269999999999999890e-13 1.181251617980081254e-10 4.870113551826584858e-18 6.497781477172163475e-08
6.929999999999999754e-13 6.445728594625782745e-10 1.018299070687946017e-16 3.033770597342807186e-07
6.295000000000000137e-12 5.855111460395753757e-09 5.487150723824490656e-15 1.763710043904196507e-06
1.581000000000000150e-11 1.470523320212576141e-08 2.904239460150760759e-14 3.559434472327477622e-06
3.971999999999999958e-11 3.694456170323160790e-08 1.439340266754906811e-13 6.772854871245677111e-06
9.975999999999999982e-11 9.278976412613005154e-08 6.812143616221268841e-13 1.246890511177539320e-05
2.505999999999999928e-10 2.330928829758143313e-07 3.107749196951638608e-12 2.212095130576091967e-05
6.294000000000000186e-10 5.854398883216247602e-07 1.363250409771533549e-11 3.761981047239428883e-05
1.581000000000000021e-09 1.470619631082054101e-06 5.726014178088476303e-11 6.095350986710739404e-05
3.971999999999999932e-09 3.694861084648016046e-06 2.210019573374265380e-10 8.628023653304385055e-05
5.000000000000000105e-09 4.651201787816927976e-06 3.071485916280120014e-10 9.387863480799757518e-05
9.975999999999999465e-09 9.280587964640925786e-06 8.385361004129998845e-10 1.356922228656245837e-04
1.989999999999999952e-08 1.851419242998081003e-05 2.287763168863418088e-09 1.782101978513718314e-04
3.972999999999999908e-08 3.696699295748789187e-05 6.061583099087538954e-09 2.308134738384234820e-04
7.925999999999999637e-08 7.375765469301719828e-05 1.575347858094044765e-08 2.960532096713864875e-04
1.580999999999999930e-07 1.471491184379128891e-04 3.910429618672550719e-08 3.402859755131850544e-04
1.991000000000000027e-07 1.853209783927820692e-04 5.252045687899177454e-08 3.626488188833278743e-04
3.155999999999999938e-07 2.938002528823880299e-04 9.730770378831954314e-08 4.630767356912104081e-04
5.000999999999999849e-07 4.656344063839075714e-04 1.837494945860225819e-07 5.430301232045120323e-04
6.295999999999999732e-07 5.862651417037388971e-04 2.503103884558263872e-07 5.605192962670089638e-04
9.666999999999999941e-07 9.003386739730535665e-04 4.324450868778576936e-07 5.993081670211623108e-04
1.531999999999999901e-06 1.427170885631398036e-03 7.780217275717420968e-07 7.125938556504039095e-04
2.506999999999999883e-06 2.336134972129507662e-03 1.471005394641589826e-06 8.121876172121876309e-04
3.974000000000000407e-06 3.704315759716615697e-03 2.695705763844323844e-06 9.780674166779417152e-04
4.830000000000000343e-06 4.502887798316278223e-03 3.503988717694660908e-06 1.046253037768318664e-03
6.080999999999999885e-06 5.670217999231269741e-03 4.731126407333307547e-06 1.056224360839501646e-03
7.930000000000000308e-06 7.396012414119570652e-03 6.599662989063778187e-06 1.109203753630785610e-03
9.982000000000000313e-06 9.311815711689977113e-03 8.879881089227186733e-06 1.271216815433141075e-03
1.256999999999999993e-05 1.172874412604260098e-02 1.207676739913533738e-05 1.374195438212825332e-03
1.521999999999999997e-05 1.420427250933824909e-02 1.547541302213394990e-05 1.371610497379100249e-03
1.991000000000000080e-05 1.858690797761085312e-02 2.160710455847765458e-05 1.426578142835871997e-03
2.506999999999999883e-05 2.341050104039446925e-02 2.908031724375689851e-05 1.672007475975408053e-03
2.790999999999999875e-05 2.606604784714952258e-02 3.357009132255487721e-05 1.709425557744154774e-03
3.806999999999999973e-05 3.556967988784798945e-02 4.986781576435106434e-05 1.720407281314112165e-03
5.063000000000000145e-05 4.732434580343149871e-02 7.073400252905581275e-05 1.829889149838781265e-03
6.592000000000000583e-05 6.164112392498975052e-02 9.765037643900635188e-05 1.930242980462695823e-03
8.433000000000000066e-05 7.888776783401378612e-02 1.317235490470395893e-04 2.021055815200022837e-03
1.062000000000000064e-04 9.938561165478684845e-02 1.740088341640037047e-04 2.104789529260958983e-03
1.321000000000000126e-04 1.236720406455826121e-01 2.260189757651373944e-04 2.178291718403657477e-03
1.623999999999999901e-04 1.520974545104751274e-01 2.888169908545388338e-04 2.240170365918073281e-03
1.689999999999999879e-04 1.582907717069566844e-01 3.027354772999506964e-04 2.254509350360745651e-03
1.758999999999999930e-04 1.647661861691531171e-01 3.173785841705756782e-04 2.268169273277113179e-03
1.830000000000000029e-04 1.714298948183871907e-01 3.325196584577469103e-04 2.276170334580628063e-03
1.901999999999999882e-04 1.781880600978280049e-01 3.479577791899843742e-04 2.292561569242367037e-03
1.977000000000000079e-04 1.852284385240466902e-01 3.641242634600037713e-04 2.299943765467868384e-03
2.054000000000000053e-04 1.924572004474696396e-01 3.808304060475003897e-04 2.322187632288155723e-03
2.079000000000000119e-04 1.948043378760714872e-01 3.864137987380476553e-04 2.435429768083530178e-03
2.081999999999999921e-04 1.950859988578999005e-01 3.870314100985603909e-04 1.950065624557156818e-03
2.090999999999999868e-04 1.959309855029948977e-01 3.881261957135444685e-04 6.411875526909013856e-04
2.159999999999999919e-04 2.024093317906446865e-01 3.940874488768042125e-04 1.199166870571831411e-03
2.231000000000000019e-04 2.090756740932291913e-01 4.013938420547467825e-04 9.928616047829054436e-04
2.311000000000000066e-04 2.165873044433437034e-01 4.085241694843774404e-04 9.056166966301716637e-04
2.401000000000000085e-04 2.250381721984245909e-01 4.159700687886608468e-04 8.565463878902855599e-04
2.500000000000000052e-04 2.343344406330727658e-01 4.237602369176299592e-04 8.194318812157330018e-04
2.642999999999999733e-04 2.477629128650125634e-01 4.345596643180389446e-04 7.890063723638815647e-04
3.052999999999999941e-04 2.862671839140227270e-01 4.644058706720978241e-04 7.612775562167708662e-04
3.533000000000000224e-04 3.313503829113090826e-01 4.987577676308450197e-04 7.626578558207241024e-04
4.075999999999999871e-04 3.823564017794535141e-01 5.381334366106255759e-04 7.813048116943254948e-04
4.679999999999999915e-04 4.390986251953180042e-01 5.832692638200615834e-04 8.096035963157804938e-04
5.341000000000000261e-04 5.012024644415256081e-01 6.346556894078133086e-04 8.452514814113673558e-04
6.059000000000000366e-04 5.686690698184251325e-01 6.930641302632923034e-04 8.862253587289389486e-04
7.661000000000000275e-04 7.192254882508629654e-01 8.328184776562496576e-04 9.702780530519144065e-04
1.262000000000000101e-03 1.185459127778160093e+00 1.338484980802662205e-03 1.198863597978450275e-03
1.894999999999999983e-03 1.780909071169781921e+00 2.123481960401060308e-03 1.437771491635827115e-03
2.673000000000000029e-03 2.513147344746868850e+00 3.261860252001994032e-03 1.671524566936786766e-03
3.605999999999999830e-03 3.391736073717691369e+00 4.828136641022434151e-03 1.893900408978071038e-03
4.709999999999999777e-03 4.431905410739045870e+00 6.903512974832482635e-03 2.096551352830673849e-03
7.496000000000000059e-03 7.058993649504918366e+00 1.289742191321638018e-02 2.466596387205546859e-03
1.119999999999999989e-02 1.055540362104863661e+01 2.212077014004794340e-02 2.809304433764861584e-03
1.600000000000000033e-02 1.509117352747679952e+01 3.559566804390756900e-02 3.132325055719984222e-03
2.206999999999999934e-02 2.083310616724802244e+01 5.457322122755020599e-02 3.477840948757840792e-03
2.947999999999999926e-02 2.785007348564149154e+01 8.049103664263126956e-02 3.909302116317729670e-03
4.268000000000000266e-02 4.036707211535221518e+01 1.353887601042819133e-01 4.862066536253286525e-03
6.219999999999999835e-02 5.891246509830522626e+01 2.419691225623893105e-01 6.630786177272363080e-03
7.316999999999999893e-02 6.935151695866235855e+01 3.161896974764099033e-01 7.588671314871411888e-03
7.595999999999999974e-02 7.200836722020332559e+01 3.371250777904805096e-01 8.170805199905812125e-03
7.685877551020407761e-02 7.286441680070348070e+01 3.442062294031140723e-01 8.372974984238792939e-03
7.775755102040816935e-02 7.372055020516442880e+01 3.514618645834417521e-01 8.576793592533833721e-03
7.865632653061224722e-02 7.457676848985043705e+01 3.588934272543630177e-01 8.782235265249349609e-03
7.955510204081632508e-02 7.543307270326555170e+01 3.665023402768023408e-01 8.989274242843769622e-03
8.045387755102040295e-02 7.628946388617870866e+01 3.742900054448897729e-01 9.197884765775515836e-03
8.135265306122449469e-02 7.714594307164733777e+01 3.822578034807648240e-01 9.408041074503012066e-03
8.225142857142857256e-02 7.800251128504042697e+01 3.904070940290052527e-01 9.619717409484676920e-03
8.315020408163265042e-02 7.885916954405988122e+01 3.987392156506866514e-01 9.832888011178934212e-03
8.404897959183672829e-02 7.971591885876163985e+01 4.072554858170741587e-01 1.004752712004420775e-02
8.494775510204082003e-02 8.057276023157507439e+01 4.159572009029517403e-01 1.026360897653891963e-02
8.584653061224489790e-02 8.142969465732188894e+01 4.248456361795909797e-01 1.048110782112149017e-02
8.674530612244897576e-02 8.228672312323416804e+01 4.339220458073657083e-01 1.069999789425034320e-02
8.764408163265305363e-02 8.314384660897134438e+01 4.431876628280125296e-01 1.092025343638390426e-02
8.854285714285714537e-02 8.400106608663693919e+01 4.526436991565440660e-01 1.114184868798059197e-02
8.944163265306122323e-02 8.485838252079366839e+01 4.622913455728159260e-01 1.136475788949882840e-02
9.034040816326530110e-02 8.571579686847859136e+01 4.721317717127538893e-01 1.158895528139703909e-02
9.123918367346939284e-02 8.657331007921759181e+01 4.821661260592419174e-01 1.181441510413364614e-02
9.213795918367347071e-02 8.743092309503828119e+01 4.923955359326759318e-01 1.204111159816707334e-02
9.303673469387754857e-02 8.828863685048364118e+01 5.028211074811883563e-01 1.226901900395573758e-02
9.393551020408162644e-02 8.914645227262381866e+01 5.134439256705443100e-01 1.249811156195806613e-02
9.483428571428570431e-02 9.000437028106827597e+01 5.242650542737147257e-01 1.272836351263247588e-02
9.573306122448979605e-02 9.086239178797683280e+01 5.352855358601299463e-01 1.295974909643740278e-02
9.663183673469387391e-02 9.172051769807031008e+01 5.465063917846162411e-01 1.319224255383125675e-02
9.753061224489795178e-02 9.257874890864097495e+01 5.579286221760210163e-01 1.342581812527245989e-02
9.842938775510204352e-02 9.343708630956189154e+01 5.695532059255279389e-01 1.366045005121944468e-02
9.932816326530612139e-02 9.429553078329666960e+01 5.813811006746658627e-01 1.389611257213062279e-02
1.002269387755101993e-01 9.515408320490774940e+01 5.934132428030178819e-01 1.413277992846442496e-02
1.011257142857142910e-01 9.601274444206515568e+01 6.056505474156304025e-01 1.437042636067927329e-02
1.020244897959183689e-01 9.687151535505427091e+01 6.180939083301270065e-01 1.460902610923357943e-02
1.029232653061224467e-01 9.773039679678350922e+01 6.307441980635331014e-01 1.484855341458577935e-02
1.038220408163265246e-01 9.858938961279149282e+01 6.436022678188109136e-01 1.508898251719428818e-02
1.047208163265306025e-01 9.944849464125373117e+01 6.566689474711113750e-01 1.533028765751752974e-02
1.056195918367346942e-01 1.003077127129896127e+02 6.699450455537453442e-01 1.557244307601393304e-02
1.065183673469387721e-01 1.011670446514675206e+02 6.834313492438771620e-01 1.581542301314190976e-02
1.074171428571428499e-01 1.020264912728119384e+02 6.971286243479465350e-01 1.605920170935988545e-02
1.083159183673469417e-01 1.028860533858078270e+02 7.110376152868188582e-01 1.630375340512628737e-02
1.092146938775510195e-01 1.037457317919062518e+02 7.251590450806690846e-01 1.654905234089953936e-02
1.101134693877550974e-01 1.046055272852294991e+02 7.394936153336052476e-01 1.679507275713805481e-02
1.110122448979591891e-01 1.054654406525752961e+02 7.540420062180307470e-01 1.704178889430026447e-02
1.119110204081632531e-01 1.063254726734212596e+02 7.688048764587502859e-01 1.728917499284458176e-02
1.128097959183673449e-01 1.071856241199289315e+02 7.837828633168280046e-01 1.753720529322944088e-02
1.137085714285714227e-01 1.080458957569477008e+02 7.989765825731911519e-01 1.778585403591326219e-02
1.146073469387755006e-01 1.089062883420180725e+02 8.143866285119945037e-01 1.803509546135445563e-02
1.155061224489795924e-01 1.097668026253753766e+02 8.300135739037400873e-01 1.828490381001145887e-02
1.164048979591836702e-01 1.106274393499523541e+02 8.458579699881597636e-01 1.853525332234268880e-02
1.173036734693877481e-01 1.114881992513824400e+02 8.619203464568652162e-01 1.878611823880656229e-02
1.182024489795918398e-01 1.123490830580021935e+02 8.782012114357655719e-01 1.903747279986151703e-02
1.191012244897959177e-01 1.132100914908533866e+02 8.947010514672583126e-01 1.928929124596595601e-02
1.199999999999999956e-01 1.140712252636857755e+02 9.114203314921982546e-01 1.954154781757831347e-02
1.233685225161817584e-01 1.172998038174432480e+02 9.760494347905519508e-01 2.049387353827459776e-02
1.267370450323635211e-01 1.205301897963893509e+02 1.043824750529704914e+00 2.146702440417575658e-02
1.301055675485452978e-01 1.237624197197534102e+02 1.114816752095943109e+00 2.246030751672761783e-02
1.334740900647270467e-01 1.269965300144861260e+02 1.189093897256524146e+00 2.347303395462923756e-02
1.368426125809088234e-01 1.302325569715441986e+02 1.266722642971410240e+00 2.450452135491600070e-02
1.402111350970906001e-01 1.334705367069452109e+02 1.347767468300514748e+00 2.555409653339607221e-02
1.435796576132723490e-01 1.367105051272156118e+02 1.432290905587700447e+00 2.662109815045053673e-02
1.469481801294541257e-01 1.399524978989134070e+02 1.520353580123620763e+00 2.770487942659690186e-02
1.503167026456358746e-01 1.431965504219532761e+02 1.612014258505552800e+00 2.880481091087720019e-02
1.536852251618176513e-01 1.464426978065091873e+02 1.707329905924422020e+00 2.992028330400605188e-02
1.570537476779994002e-01 1.496909748532955575e+02 1.806355752617754939e+00 3.105071033725103832e-02
1.604222701941811768e-01 1.529414160370689046e+02 1.909145369732944131e+00 3.219553170718805063e-02
1.637907927103629535e-01 1.561940554932075429e+02 2.015750754848141479e+00 3.335421606574135583e-02
1.671593152265447024e-01 1.594489270072565716e+02 2.126222427398783310e+00 3.452626406426410194e-02
1.705278377427264791e-01 1.627060640073412685e+02 2.240609534256220226e+00 3.571121144981759948e-02
1.738963602589082280e-01 1.659654995593662932e+02 2.358959965701446837e+00 3.690863221125065263e-02
1.772648827750900047e-01 1.692272663649378330e+02 2.481320482031593500e+00 3.811814177215486210e-02
1.806334052912717536e-01 1.724913967619508242e+02 2.607736851029622382e+00 3.933940022726237218e-02
1.840019278074535303e-01 1.757579227277996949e+02 2.738253996518791755e+00 4.057211561835546293e-02
1.873704503236353069e-01 1.790268758851769064e+02 2.872916158212702964e+00 4.181604724526279127e-02
1.907389728398170559e-01 1.822982875104296170e+02 3.011767063059361149e+00 4.307100900702178631e-02
1.941074953559988048e-01 1.855721885444563384e+02 3.154850108263440145e+00 4.433687276778481429e-02
1.974760178721806092e-01 1.888486096061250521e+02 3.302208556154946351e+00 4.561357174153547744e-02
2.008445403883623581e-01 1.921275810082008491e+02 3.453885741054658176e+00 4.690110388916120254e-02
2.042130629045441070e-01 1.954091327757766408e+02 3.609925288267050725e+00 4.819953532089222420e-02
2.075815854207258837e-01 1.986932946672005471e+02 3.770371345309756705e+00 4.950900369657060263e-02
2.109501079369076604e-01 2.019800961974957545e+02 3.935268825465140896e+00 5.082972161565230823e-02
2.143186304530894093e-01 2.052695666642728725e+02 4.104663663714017474e+00 5.216197998827209331e-02
2.176871529692711860e-01 2.085617351761317195e+02 4.278603085084003332e+00 5.350615137811712274e-02
2.210556754854529626e-01 2.118566306835544140e+02 4.457135885415410392e+00 5.486269330726381566e-02
2.244241980016347116e-01 2.151542820122866146e+02 4.640312724515993636e+00 5.623215151253297545e-02
2.277927205178164605e-01 2.184547178992069405e+02 4.828186431642139453e+00 5.761516314231771019e-02
2.311612430339982371e-01 2.217579670306824369e+02 5.020812323208346584e+00 5.901245988223931954e-02
2.345297655501800138e-01 2.250640580834040918e+02 5.218248532589088384e+00 6.042487099739279888e-02
2.378982880663617627e-01 2.283730197677002138e+02 5.420556351837390707e+00 6.185332627836151453e-02
2.412668105825435394e-01 2.316848808733161320e+02 5.627800585102761488e+00 6.329885887761610430e-02
2.446353330987253161e-01 2.349996703176504411e+02 5.840049913487563416e+00 6.476260802237172876e-02
2.480038556149070650e-01 2.383174171964349739e+02 6.057377271035682575e+00 6.624582158946688837e-02
2.513723781310888139e-01 2.416381508368419588e+02 6.279860231500419943e+00 6.774985852735661285e-02
2.547409006472706183e-01 2.449619008529929829e+02 6.507581405490183712e+00 6.927619110988522677e-02
2.581094231634523672e-01 2.482886972038516262e+02 6.740628847540911295e+00 7.082640700613461460e-02
2.614779456796341162e-01 2.516185702534662596e+02 6.979096472613504076e+00 7.240221115033554367e-02
2.648464681958159206e-01 2.549515508335286995e+02 7.223084481462880291e+00 7.400542739559588801e-02
2.682149907119976140e-01 2.582876703082150698e+02 7.472699794273218288e+00 7.563799993504041752e-02
2.715835132281794184e-01 2.616269606412602684e+02 7.728056491901608815e+00 7.730199447390660727e-02
2.749520357443612228e-01 2.649694544652192576e+02 7.989276264019731677e+00 7.899959913616269591e-02
2.783205582605429163e-01 2.683151851528618295e+02 8.256488863391535205e+00 8.073312508936794640e-02
2.816890807767247207e-01 2.716641868906418722e+02 8.529832565473427053e+00 8.250500687175461867e-02
2.850576032929064696e-01 2.750164947541704237e+02 8.809454632473441293e+00 8.431780240589584197e-02
3.608727542461124815e-01 3.528358307384366412e+02 3.398661865875321553e+01 5.412953254134741377e-01
4.366879051993184380e-01 4.385774833946112494e+02 7.942556865497292051e+01 5.213739769153866721e-01
5.125030561525244499e-01 5.324601845723782390e+02 1.273420404262805334e+02 5.014526284172993176e-01
5.883182071057304618e-01 6.335831831066313953e+02 1.769629782808224547e+02 4.815312799192118520e-01
6.641333580589364738e-01 7.411874869881927452e+02 2.276382175944464450e+02 4.616099314211244420e-01
7.399485090121424857e-01 8.546567974961492382e+02 2.800682629606997693e+02 4.628008344410031727e-01
8.157636599653483866e-01 9.736635613840971928e+02 3.360430029024950613e+02 4.776694100281433930e-01
8.915788109185545096e-01 1.098076150669585104e+03 3.964108829982599786e+02 4.925379856152836133e-01
9.673939618717604105e-01 1.227803001254898845e+03 4.607958888113579405e+02 5.000642066185396750e-01
1.043209112824966533e+00 1.362654911391953647e+03 5.255709612581746342e+02 4.618159774219898761e-01
1.119024263778172434e+00 1.502107712800314857e+03 5.872368592476582307e+02 4.235677482254401327e-01
1.194839414731378335e+00 1.645618538627405997e+03 6.452207954889130406e+02 3.853195190288903893e-01
1.270654565684584458e+00 1.792679568091481542e+03 6.990252200227145067e+02 3.470712898323405349e-01
1.346469716637790359e+00 1.942816053922375886e+03 7.482218021011461815e+02 3.088230606357907915e-01
1.422284867590996482e+00 2.095584467501233576e+03 7.924458243717618871e+02 2.705748314392409370e-01
1.498100018544202383e+00 2.250570751451165961e+03 8.313909596090294372e+02 2.323266022426911936e-01
1.573915169497408284e+00 2.407388671126254394e+03 8.648044033886066018e+02 1.940783730461414502e-01
1.649730320450614407e+00 2.565678257704762473e+03 8.924823386408377246e+02 1.558301438495915958e-01
1.725545471403820308e+00 2.725104336551120468e+03 9.142657101245494005e+02 1.175819146530418524e-01
1.801360622357026431e+00 2.885355135259579129e+03 9.300362886464457688e+02 7.933368545649199799e-02
1.877175773310232332e+00 3.046163293700375107e+03 9.408438714569011836e+02 5.511925065670704449e-02
1.952990924263438455e+00 3.207650508786385217e+03 9.666855738585865083e+02 2.641672695925006975e-01
2.028806075216644356e+00 3.370730599475937197e+03 1.026973375855956647e+03 4.732152885282937538e-01
2.104621226169850257e+00 3.536653357148048144e+03 1.123119619205589061e+03 6.822633074640866990e-01
