# density  energy_density  pressure   sound_speed_squared  [All in nuclear units]
2.720000000000000022e-14 2.529924618736292620e-11 1.061056609100270887e-19 3.766610435412189122e-08
1.269999999999999890e-13 1.181251617980081254e-10 4.870113551826584858e-18 6.497781477172163475e-08
6.929999999999999754e-13 6.445728594625782745e-10 1.018299070687946017e-16 3.033770597342807186e-07
6.295000000000000137e-12 5.855111460395753757e-09 5.487150723824490656e-15 1.763710043904196507e-06
1.581000000000000150e-11 1.470523320212576141e-08 2.904239460150760759e-14 3.559434472327477622e-06
3.971999999999999958e-11 3.694456170323160790e-08 1.439340266754906811e-13 6.772854871245677111e-06
9.975999999999999982e-11 9.278976412613005154e-08 6.812143616221268841e-13 1.246890511177539320e-05
2.505999999999999928e-10 2.330928829758143313e-07 3.107749196951638608e-12 2.212095130576091967e-05
6.294000000000000186e-10 5.854398883216247602e-07 1.363250409771533549e-11 3.761981047239428883e-05
1.581000000000000021e-09 1.470619631082054101e-06 5.726014178088476303e-11 6.095350986710739404e-05
3.971999999999999932e-09 3.694861084648016046e-06 2.210019573374265380e-10 8.628023653304385055e-05
5.000000000000000105e-09 4.651201787816927976e-06 3.071485916280120014e-10 9.387863480799757518e-05
9.975999999999999465e-09 9.280587964640925786e-06 8.385361004129998845e-10 1.356922228656245837e-04
1.989999999999999952e-08 1.851419242998081003e-05 2.287763168863418088e-09 1.782101978513718314e-04
3.972999999999999908e-08 3.696699295748789187e-05 6.061583099087538954e-09 2.308134738384234820e-04
7.925999999999999637e-08 7.375765469301719828e-05 1.575347858094044765e-08 2.960532096713864875e-04
1.580999999999999930e-07 1.471491184379128891e-04 3.910429618672550719e-08 3.402859755131850544e-04
1.991000000000000027e-07 1.853209783927820692e-04 5.252045687899177454e-08 3.626488188833278743e-04
3.155999999999999938e-07 2.938002528823880299e-04 9.730770378831954314e-08 4.630767356912104081e-04
5.000999999999999849e-07 4.656344063839075714e-04 1.837494945860225819e-07 5.430301232045120323e-04
6.295999999999999732e-07 5.862651417037388971e-04 2.503103884558263872e-07 5.605192962670089638e-04
9.666999999999999941e-07 9.003386739730535665e-04 4.324450868778576936e-07 5.993081670211623108e-04
1.531999999999999901e-06 1.427170885631398036e-03 7.780217275717420968e-07 7.125938556504039095e-04
2.506999999999999883e-06 2.336134972129507662e-03 1.471005394641589826e-06 8.121876172121876309e-04
3.974000000000000407e-06 3.704315759716615697e-03 2.695705763844323844e-06 9.780674166779417152e-04
4.830000000000000343e-06 4.502887798316278223e-03 3.503988717694660908e-06 1.046253037768318664e-03
6.080999999999999885e-06 5.670217999231269741e-03 4.731126407333307547e-06 1.056224360839501646e-03
7.930000000000000308e-06 7.396012414119570652e-03 6.599662989063778187e-06 1.109203753630785610e-03
9.982000000000000313e-06 9.311815711689977113e-03 8.879881089227186733e-06 1.271216815433141075e-03
1.256999999999999993e-05 1.172874412604260098e-02 1.207676739913533738e-05 1.374195438212825332e-03
1.521999999999999997e-05 1.420427250933824909e-02 1.547541302213394990e-05 1.371610497379100249e-03
1.991000000000000080e-05 1.858690797761085312e-02 2.160710455847765458e-05 1.426578142835871997e-03
2.506999999999999883e-05 2.341050104039446925e-02 2.908031724375689851e-05 1.672007475975408053e-03
2.790999999999999875e-05 2.606604784714952258e-02 3.357009132255487721e-05 1.709425557744154774e-03
3.806999999999999973e-05 3.556967988784798945e-02 4.986781576435106434e-05 1.720407281314112165e-03
5.063000000000000145e-05 4.732434580343149871e-02 7.073400252905581275e-05 1.829889149838781265e-03
6.592000000000000583e-05 6.164112392498975052e-02 9.765037643900635188e-05 1.930242980462695823e-03
8.433000000000000066e-05 7.888776783401378612e-02 1.317235490470395893e-04 2.021055815200022837e-03
1.062000000000000064e-04 9.938561165478684845e-02 1.740088341640037047e-04 2.104789529260958983e-03
1.321000000000000126e-04 1.236720406455826121e-01 2.260189757651373944e-04 2.178291718403657477e-03
1.623999999999999901e-04 1.520974545104751274e-01 2.888169908545388338e-04 2.240170365918073281e-03
1.689999999999999879e-04 1.582907717069566844e-01 3.027354772999506964e-04 2.254509350360745651e-03
1.758999999999999930e-04 1.647661861691531171e-01 3.173785841705756782e-04 2.268169273277113179e-03
1.830000000000000029e-04 1.714298948183871907e-01 3.325196584577469103e-04 2.276170334580628063e-03
1.901999999999999882e-04 1.781880600978280049e-01 3.479577791899843742e-04 2.292561569242367037e-03
1.977000000000000079e-04 1.852284385240466902e-01 3.641242634600037713e-04 2.299943765467868384e-03
2.054000000000000053e-04 1.924572004474696396e-01 3.808304060475003897e-04 2.322187632288155723e-03
2.079000000000000119e-04 1.948043378760714872e-01 3.864137987380476553e-04 2.435429768083530178e-03
2.081999999999999921e-04 1.950859988578999005e-01 3.870314100985603909e-04 1.950065624557156818e-03
2.090999999999999868e-04 1.959309855029948977e-01 3.881261957135444685e-04 6.411875526909013856e-04
2.159999999999999919e-04 2.024093317906446865e-01 3.940874488768042125e-04 1.199166870571831411e-03
2.231000000000000019e-04 2.090756740932291913e-01 4.013938420547467825e-04 9.928616047829054436e-04
2.311000000000000066e-04 2.165873044433437034e-01 4.085241694843774404e-04 9.056166966301716637e-04
2.401000000000000085e-04 2.250381721984245909e-01 4.159700687886608468e-04 8.565463878902855599e-04
2.500000000000000052e-04 2.343344406330727658e-01 4.237602369176299592e-04 8.194318812157330018e-04
2.642999999999999733e-04 2.477629128650125634e-01 4.345596643180389446e-04 7.890063723638815647e-04
3.052999999999999941e-04 2.862671839140227270e-01 4.644058706720978241e-04 7.612775562167708662e-04
3.533000000000000224e-04 3.313503829113090826e-01 4.987577676308450197e-04 7.626578558207241024e-04
4.075999999999999871e-04 3.823564017794535141e-01 5.381334366106255759e-04 7.813048116943254948e-04
4.679999999999999915e-04 4.390986251953180042e-01 5.832692638200615834e-04 8.096035963157804938e-04
5.341000000000000261e-04 5.012024644415256081e-01 6.346556894078133086e-04 8.452514814113673558e-04
6.059000000000000366e-04 5.686690698184251325e-01 6.930641302632923034e-04 8.862253587289389486e-04
7.661000000000000275e-04 7.192254882508629654e-01 8.328184776562496576e-04 9.702780530519144065e-04
1.262000000000000101e-03 1.185459127778160093e+00 1.338484980802662205e-03 1.198863597978450275e-03
1.894999999999999983e-03 1.780909071169781921e+00 2.123481960401060308e-03 1.437771491635827115e-03
2.673000000000000029e-03 2.513147344746868850e+00 3.261860252001994032e-03 1.671524566936786766e-03
3.605999999999999830e-03 3.391736073717691369e+00 4.828136641022434151e-03 1.893900408978071038e-03
4.709999999999999777e-03 4.431905410739045870e+00 6.903512974832482635e-03 2.096551352830673849e-03
7.496000000000000059e-03 7.058993649504918366e+00 1.289742191321638018e-02 2.466596387205546859e-03
1.119999999999999989e-02 1.055540362104863661e+01 2.212077014004794340e-02 2.809304433764861584e-03
1.600000000000000033e-02 1.509117352747679952e+01 3.559566804390756900e-02 3.132325055719984222e-03
2.206999999999999934e-02 2.083310616724802244e+01 5.457322122755020599e-02 3.477840948757840792e-03
2.947999999999999926e-02 2.785007348564149154e+01 8.049103664263126956e-02 3.909302116317729670e-03
4.268000000000000266e-02 4.036707211535221518e+01 1.353887601042819133e-01 4.862066536253286525e-03
6.219999999999999835e-02 5.891246509830522626e+01 2.419691225623893105e-01 6.630786177272363080e-03
7.316999999999999893e-02 6.935151695866235855e+01 3.161896974764099033e-01 7.588671314871411888e-03
7.595999999999999974e-02 7.200836722020332559e+01 3.371250777904805096e-01 8.170805199905812125e-03
7.685877551020407761e-02 7.286441682990094648e+01 3.442112261040295440e-01 8.384647700452633676e-03
7.775755102040816935e-02 7.372055039893621142e+01 3.514850992066252400e-01 8.607721961302489469e-03
7.865632653061224722e-02 7.457676917158782715e+01 3.589544854642557903e-01 8.839645914187786377e-03
7.955510204081632508e-02 7.543307445085655161e+01 3.666268497618740962e-01 9.080037490840948619e-03
8.045387755102040295e-02 7.628946759281951984e+01 3.745093334422589515e-01 9.328514622994388272e-03
8.135265306122449469e-02 7.714595000123644297e+01 3.826087542400227748e-01 9.584695242380529556e-03
8.225142857142857256e-02 7.800252312239329910e+01 3.909316062099355560e-01 9.848197280731779343e-03
8.315020408163265042e-02 7.885918844017034246e+01 3.994840596488343776e-01 1.011863866978056012e-02
8.404897959183672829e-02 7.971594747132314751e+01 4.082719610104730279e-01 1.039563734125928222e-02
8.494775510204082003e-02 8.057280176096391244e+01 4.173008328127535416e-01 1.067881122690037855e-02
8.584653061224489790e-02 8.142975287823318808e+01 4.265758735368558319e-01 1.096777825843624557e-02
8.674530612244897576e-02 8.228680241215198521e+01 4.361019575178573526e-01 1.126215636759930749e-02
8.764408163265305363e-02 8.314395196764442630e+01 4.458836348264981209e-01 1.156156348612198681e-02
8.854285714285714537e-02 8.400120316172215951e+01 4.559251311418131558e-01 1.186561754573669733e-02
8.944163265306122323e-02 8.485855761982294609e+01 4.662303476144104009e-01 1.217393647817585287e-02
9.034040816326530110e-02 8.571601697229418448e+01 4.768028607202313696e-01 1.248613821517187070e-02
9.123918367346939284e-02 8.657358285101551587e+01 4.876459221046778314e-01 1.280184068845716810e-02
9.213795918367347071e-02 8.743125688615272395e+01 4.987624584170402553e-01 1.312066182976416411e-02
9.303673469387754857e-02 8.828904070303647700e+01 5.101550711352101919e-01 1.344221957082526904e-02
9.393551020408162644e-02 8.914693591916032744e+01 5.218260363806961344e-01 1.376613184337290713e-02
9.483428571428570431e-02 9.000494414129147458e+01 5.337773047240078617e-01 1.409201657913948871e-02
9.573306122448979605e-02 9.086306696268914607e+01 5.460105009805097387e-01 1.441949170985744148e-02
9.663183673469387391e-02 9.172130596042579498e+01 5.585269239968767563e-01 1.474817516725916537e-02
9.753061224489795178e-02 9.257966269280554172e+01 5.713275464283270599e-01 1.507768488307709154e-02
9.842938775510204352e-02 9.343813869687612339e+01 5.844130145068271442e-01 1.540763878904363032e-02
9.932816326530612139e-02 9.429673548602917776e+01 5.977836478005023046e-01 1.573765481689119727e-02
1.002269387755101993e-01 9.515545454768533773e+01 6.114394389645129158e-01 1.606735089835220620e-02
1.011257142857142910e-01 9.601429734105998648e+01 6.253800534836780889e-01 1.639634496515909173e-02
1.020244897959183689e-01 9.687326529500649031e+01 6.396048294071583484e-01 1.672425494904424687e-02
1.029232653061224467e-01 9.773235980593250360e+01 6.541127770755340576e-01 1.705069878174009582e-02
1.038220408163265246e-01 9.859158223578700131e+01 6.689025788406306461e-01 1.737529439497906281e-02
1.047208163265306025e-01 9.945093391011467077e+01 6.839725887784730007e-01 1.769765972049356165e-02
1.056195918367346942e-01 1.003104161161739967e+02 6.993208323957648131e-01 1.801741269001600615e-02
1.065183673469387721e-01 1.011700301011178595e+02 7.149450063303097735e-01 1.833417123527881706e-02
1.074171428571428499e-01 1.020297770702318161e+02 7.308424780458127046e-01 1.864755328801440126e-02
1.083159183673469417e-01 1.028896581852300756e+02 7.470102855215094984e-01 1.895717677995519337e-02
1.092146938775510195e-01 1.037496745626040138e+02 7.634451369370969243e-01 1.926265964283358639e-02
1.101134693877550974e-01 1.046098272720238924e+02 7.801434103534501396e-01 1.956361980838201842e-02
1.110122448979591891e-01 1.054701173347889664e+02 7.971011533896223966e-01 1.985967520833289979e-02
1.119110204081632531e-01 1.063305457223255672e+02 8.143140828966443090e-01 2.015044377441863044e-02
1.128097959183673449e-01 1.071911133547312573e+02 8.317775846286539210e-01 2.043554343837165888e-02
1.137085714285714227e-01 1.080518210993619874e+02 8.494867129118891524e-01 2.071459213192437462e-02
1.146073469387755006e-01 1.089126697694618002e+02 8.674361903121081685e-01 2.098720778680920190e-02
1.155061224489795924e-01 1.097736601228327658e+02 8.856204073009931177e-01 2.125300833475857187e-02
1.164048979591836702e-01 1.106347928605436692e+02 9.040334219221183298e-01 2.151161170750487406e-02
1.173036734693877481e-01 1.114960686256760596e+02 9.226689594570726127e-01 2.176263583678055002e-02
1.182024489795918398e-01 1.123574880021063365e+02 9.415204120923291731e-01 2.200569865431800665e-02
1.191012244897959177e-01 1.132190515133217161e+02 9.605808385874732291e-01 2.224041809184965773e-02
1.199999999999999956e-01 1.140807596212704027e+02 9.798429639454092621e-01 2.246641208110791710e-02
1.236519896935766999e-01 1.175836350750848140e+02 1.060043805210564738e+00 2.332479688314746322e-02
1.273039793871534042e-01 1.210889245491335373e+02 1.143322831169281351e+00 2.419118071868164854e-02
1.309559690807300947e-01 1.245966475292767370e+02 1.229710107922590723e+00 2.506406131072221391e-02
1.346079587743068129e-01 1.281068231797533201e+02 1.319230392937636331e+00 2.594186183416853295e-02
1.382599484678835033e-01 1.316194702215074983e+02 1.411902854312408140e+00 2.682293082861011632e-02
1.419119381614601938e-01 1.351346068159326705e+02 1.507740787980371255e+00 2.770554203824799125e-02
1.455639278550369120e-01 1.386522504532761957e+02 1.606751332623575168e+00 2.858789419653654656e-02
1.492159175486136025e-01 1.421724178450635918e+02 1.708935182124488472e+00 2.946811076963514256e-02
1.528679072421902929e-01 1.456951248199858071e+02 1.814286295437902430e+00 3.034423966991196125e-02
1.565198969357670111e-01 1.492203862227729019e+02 1.922791603806877525e+00 3.121425294843459958e-02
1.601718866293437016e-01 1.527482158156447838e+02 2.034430715282616209e+00 3.207604647351697258e-02
1.638238763229204198e-01 1.562786261819821334e+02 2.149175616538670397e+00 3.292743960088732880e-02
1.674758660164971102e-01 1.598116286319079791e+02 2.266990371996170595e+00 3.376617483983439250e-02
1.711278557100738285e-01 1.633472331095178447e+02 2.387830820299811752e+00 3.458991751872556725e-02
1.747798454036505189e-01 1.668854481015205522e+02 2.511644268204807684e+00 3.539625545253430317e-02
1.784318350972272094e-01 1.704262805470932278e+02 2.638369181953755582e+00 3.618269861443035307e-02
1.820838247908039276e-01 1.739697357487744398e+02 2.767934876239708242e+00 3.694667881304913859e-02
1.857358144843806180e-01 1.775158172842417059e+02 2.900261200868404998e+00 3.768554937674771510e-02
1.893878041779573085e-01 1.810645269188462692e+02 3.035258225248852693e+00 3.839658484595568494e-02
1.930397938715340267e-01 1.846158645187883849e+02 3.172825920857668791e+00 3.907698067462647001e-02
1.966917835651107171e-01 1.881698279648354344e+02 3.312853841839191738e+00 3.972385294178130966e-02
2.003437732586874076e-01 1.917264130665022321e+02 3.455220803920563633e+00 4.033423807420126461e-02
2.039957629522641258e-01 1.952856134766190337e+02 3.599794561839052331e+00 4.090509258146006466e-02
2.076477526458408440e-01 1.988474206062296332e+02 3.746431485498163294e+00 4.143329280469559839e-02
2.112997423394175345e-01 2.024118235397692445e+02 3.894976235089710581e+00 4.191563468078683685e-02
2.149517320329942249e-01 2.059788089504822892e+02 4.045261435441283915e+00 4.234883352393504358e-02
2.186037217265709431e-01 2.095483610160496255e+02 4.197107349872641890e+00 4.272952382703856800e-02
2.222557114201476336e-01 2.131204613344000336e+02 4.350321553870735158e+00 4.305425908570240795e-02
2.259077011137243240e-01 2.166950888396929713e+02 4.504698608921506420e+00 4.331951164823314576e-02
2.295596908073010423e-01 2.202722197184614288e+02 4.660019736867490714e+00 4.352167259553750556e-02
2.332116805008777327e-01 2.238518273259154796e+02 4.816052495193874350e+00 4.365705165547151961e-02
2.368636701944544232e-01 2.274338821024114736e+02 4.972550453682165639e+00 4.372187715687289589e-02
2.405156598880311414e-01 2.310183514900974444e+02 5.129252872910188721e+00 4.371229602925639363e-02
2.441676495816078596e-01 2.346051998497547970e+02 5.285884385120028561e+00 4.362437385495938208e-02
2.478196392751845500e-01 2.381943883778602924e+02 5.442154678021937642e+00 4.345409498139046756e-02
2.514716289687612405e-01 2.417858750238990524e+02 5.597758182152269057e+00 4.319736270196378874e-02
2.551236186623379032e-01 2.453796144079682051e+02 5.752373762457426487e+00 4.284999951528668805e-02
2.587756083559146214e-01 2.489755577387160770e+02 5.905664414833815989e+00 4.240774747321482407e-02
2.624275980494913396e-01 2.525736527316643958e+02 6.057276968415894913e+00 4.186626862948972239e-02
2.660795877430680578e-01 2.561738435279801251e+02 6.206841794470934204e+00 4.122114560182604109e-02
2.697315774366447760e-01 2.597760706137561897e+02 6.353972522829945291e+00 4.046788226151967066e-02
2.733835671302214387e-01 2.633802707398788243e+02 6.498265766859637083e+00 3.960190456588705971e-02
2.770355568237981569e-01 2.669863768425628336e+02 6.639300858060147803e+00 3.861856155012327596e-02
2.806875465173748196e-01 2.705943179646440058e+02 6.776639591457626288e+00 3.751312649645255348e-02
2.843395362109515379e-01 2.742040191777322775e+02 6.909825983049567633e+00 3.628079829977075288e-02
2.879915259045282561e-01 2.778154015053258945e+02 7.038386040653687559e+00 3.491670305025153936e-02
2.916435155981049743e-01 2.814283818470133838e+02 7.161827549608116072e+00 3.341589585465961493e-02
2.952955052916816925e-01 2.850428729038854385e+02 7.279639874871103089e+00 3.177336291932201379e-02
2.989474949852583552e-01 2.886587831052960951e+02 7.391293781171987654e+00 2.998402391882637116e-02
3.744791787610693978e-01 3.654308615165167566e+02 3.081101512501645345e+01 5.580079209116681760e-01
4.500108625368804960e-01 4.497470309995682669e+02 7.756712967075002041e+01 5.526772724542379223e-01
5.255425463126914831e-01 5.422775831566176521e+02 1.284046616934643623e+02 5.473466239968077796e-01
6.010742300885025813e-01 6.423935759216917631e+02 1.828895676195144802e+02 5.420159755393775258e-01
6.766059138643136794e-01 7.495749552467459580e+02 2.406581040338051309e+02 5.366853270819472721e-01
7.521375976401247776e-01 8.633805632423316183e+02 3.013978030287314596e+02 5.313546786245171294e-01
8.276692814159356537e-01 9.834287436826580233e+02 3.648351969653688229e+02 5.260240301670868757e-01
9.032009651917467519e-01 1.109384142389177214e+03 4.307274590370421947e+02 5.206933817096566219e-01
9.787326489675578500e-01 1.240948354047149678e+03 4.988564657935327205e+02 5.153627332522263682e-01
1.054264332743368948e+00 1.377853074542359309e+03 5.690244348368703413e+02 5.100320847947962255e-01
1.129796016519180046e+00 1.519854950376217403e+03 6.410506293913305171e+02 5.047014363373659718e-01
1.205327700294991145e+00 1.666731615521184267e+03 7.147688101131174108e+02 4.993707878799357180e-01
1.280859384070802021e+00 1.818206914678087742e+03 7.856310211803793209e+02 4.376515681542272329e-01
1.356391067846613119e+00 1.973540576801990028e+03 8.437817135311271386e+02 3.129765234713104416e-01
1.431922751622424217e+00 2.131573986000161767e+03 8.833051446536915137e+02 1.883014787883935948e-01
1.507454435398235315e+00 2.291157233358613212e+03 9.033700776236720458e+02 6.362643410547680345e-02
1.582986119174046413e+00 2.451791089934438787e+03 9.290158061781492052e+02 2.548270453025398563e-01
1.658517802949857511e+00 2.614353509802387634e+03 9.891661417436965849e+02 4.825623455740374879e-01
1.734049486725668388e+00 2.780431657221412934e+03 1.088615343168418349e+03 7.102976458455345643e-01
1.809581170501479486e+00 2.951633454852570594e+03 1.228331453926693484e+03 9.154937356519438074e-01
1.885112854277290584e+00 3.129435012485550033e+03 1.390569443896486746e+03 9.096855745319084585e-01
1.960644538053101682e+00 3.313837406536044909e+03 1.557760472162337692e+03 9.038774134118729986e-01
2.036176221828912780e+00 3.504774521094751435e+03 1.729768300619498177e+03 8.980692522918376497e-01
2.111707905604723656e+00 3.702180110433632308e+03 1.906457725733966527e+03 8.922610911718023008e-01
