# density  energy_density  pressure   sound_speed_squared  [All in nuclear units]
2.720000000000000022e-14 2.529924618736292620e-11 1.061056609100270887e-19 3.766610435412189122e-08
1.269999999999999890e-13 1.181251617980081254e-10 4.870113551826584858e-18 6.497781477172163475e-08
6.929999999999999754e-13 6.445728594625782745e-10 1.018299070687946017e-16 3.033770597342807186e-07
6.295000000000000137e-12 5.855111460395753757e-09 5.487150723824490656e-15 1.763710043904196507e-06
1.581000000000000150e-11 1.470523320212576141e-08 2.904239460150760759e-14 3.559434472327477622e-06
3.971999999999999958e-11 3.694456170323160790e-08 1.439340266754906811e-13 6.772854871245677111e-06
9.975999999999999982e-11 9.278976412613005154e-08 6.812143616221268841e-13 1.246890511177539320e-05
2.505999999999999928e-10 2.330928829758143313e-07 3.107749196951638608e-12 2.212095130576091967e-05
6.294000000000000186e-10 5.854398883216247602e-07 1.363250409771533549e-11 3.761981047239428883e-05
1.581000000000000021e-09 1.470619631082054101e-06 5.726014178088476303e-11 6.095350986710739404e-05
3.971999999999999932e-09 3.694861084648016046e-06 2.210019573374265380e-10 8.628023653304385055e-05
5.000000000000000105e-09 4.651201787816927976e-06 3.071485916280120014e-10 9.387863480799757518e-05
9.975999999999999465e-09 9.280587964640925786e-06 8.385361004129998845e-10 1.356922228656245837e-04
1.989999999999999952e-08 1.851419242998081003e-05 2.287763168863418088e-09 1.782101978513718314e-04
3.972999999999999908e-08 3.696699295748789187e-05 6.061583099087538954e-09 2.308134738384234820e-04
7.925999999999999637e-08 7.375765469301719828e-05 1.575347858094044765e-08 2.960532096713864875e-04
1.580999999999999930e-07 1.471491184379128891e-04 3.910429618672550719e-08 3.402859755131850544e-04
1.991000000000000027e-07 1.853209783927820692e-04 5.252045687899177454e-08 3.626488188833278743e-04
3.155999999999999938e-07 2.938002528823880299e-04 9.730770378831954314e-08 4.630767356912104081e-04
5.000999999999999849e-07 4.656344063839075714e-04 1.837494945860225819e-07 5.430301232045120323e-04
6.295999999999999732e-07 5.862651417037388971e-04 2.503103884558263872e-07 5.605192962670089638e-04
9.666999999999999941e-07 9.003386739730535665e-04 4.324450868778576936e-07 5.993081670211623108e-04
1.531999999999999901e-06 1.427170885631398036e-03 7.780217275717420968e-07 7.125938556504039095e-04
2.506999999999999883e-06 2.336134972129507662e-03 1.471005394641589826e-06 8.121876172121876309e-04
3.974000000000000407e-06 3.704315759716615697e-03 2.695705763844323844e-06 9.780674166779417152e-04
4.830000000000000343e-06 4.502887798316278223e-03 3.503988717694660908e-06 1.046253037768318664e-03
6.080999999999999885e-06 5.670217999231269741e-03 4.731126407333307547e-06 1.056224360839501646e-03
7.930000000000000308e-06 7.396012414119570652e-03 6.599662989063778187e-06 1.109203753630785610e-03
9.982000000000000313e-06 9.311815711689977113e-03 8.879881089227186733e-06 1.271216815433141075e-03
1.256999999999999993e-05 1.172874412604260098e-02 1.207676739913533738e-05 1.374195438212825332e-03
1.521999999999999997e-05 1.420427250933824909e-02 1.547541302213394990e-05 1.371610497379100249e-03
1.991000000000000080e-05 1.858690797761085312e-02 2.160710455847765458e-05 1.426578142835871997e-03
2.506999999999999883e-05 2.341050104039446925e-02 2.908031724375689851e-05 1.672007475975408053e-03
2.790999999999999875e-05 2.606604784714952258e-02 3.357009132255487721e-05 1.709425557744154774e-03
3.806999999999999973e-05 3.556967988784798945e-02 4.986781576435106434e-05 1.720407281314112165e-03
5.063000000000000145e-05 4.732434580343149871e-02 7.073400252905581275e-05 1.829889149838781265e-03
6.592000000000000583e-05 6.164112392498975052e-02 9.765037643900635188e-05 1.930242980462695823e-03
8.433000000000000066e-05 7.888776783401378612e-02 1.317235490470395893e-04 2.021055815200022837e-03
1.062000000000000064e-04 9.938561165478684845e-02 1.740088341640037047e-04 2.104789529260958983e-03
1.321000000000000126e-04 1.236720406455826121e-01 2.260189757651373944e-04 2.178291718403657477e-03
1.623999999999999901e-04 1.520974545104751274e-01 2.888169908545388338e-04 2.240170365918073281e-03
1.689999999999999879e-04 1.582907717069566844e-01 3.027354772999506964e-04 2.254509350360745651e-03
1.758999999999999930e-04 1.647661861691531171e-01 3.173785841705756782e-04 2.268169273277113179e-03
1.830000000000000029e-04 1.714298948183871907e-01 3.325196584577469103e-04 2.276170334580628063e-03
1.901999999999999882e-04 1.781880600978280049e-01 3.479577791899843742e-04 2.292561569242367037e-03
1.977000000000000079e-04 1.852284385240466902e-01 3.641242634600037713e-04 2.299943765467868384e-03
2.054000000000000053e-04 1.924572004474696396e-01 3.808304060475003897e-04 2.322187632288155723e-03
2.079000000000000119e-04 1.948043378760714872e-01 3.864137987380476553e-04 2.435429768083530178e-03
2.081999999999999921e-04 1.950859988578999005e-01 3.870314100985603909e-04 1.950065624557156818e-03
2.090999999999999868e-04 1.959309855029948977e-01 3.881261957135444685e-04 6.411875526909013856e-04
2.159999999999999919e-04 2.024093317906446865e-01 3.940874488768042125e-04 1.199166870571831411e-03
2.231000000000000019e-04 2.090756740932291913e-01 4.013938420547467825e-04 9.928616047829054436e-04
2.311000000000000066e-04 2.165873044433437034e-01 4.085241694843774404e-04 9.056166966301716637e-04
2.401000000000000085e-04 2.250381721984245909e-01 4.159700687886608468e-04 8.565463878902855599e-04
2.500000000000000052e-04 2.343344406330727658e-01 4.237602369176299592e-04 8.194318812157330018e-04
2.642999999999999733e-04 2.477629128650125634e-01 4.345596643180389446e-04 7.890063723638815647e-04
3.052999999999999941e-04 2.862671839140227270e-01 4.644058706720978241e-04 7.612775562167708662e-04
3.533000000000000224e-04 3.313503829113090826e-01 4.987577676308450197e-04 7.626578558207241024e-04
4.075999999999999871e-04 3.823564017794535141e-01 5.381334366106255759e-04 7.813048116943254948e-04
4.679999999999999915e-04 4.390986251953180042e-01 5.832692638200615834e-04 8.096035963157804938e-04
5.341000000000000261e-04 5.012024644415256081e-01 6.346556894078133086e-04 8.452514814113673558e-04
6.059000000000000366e-04 5.686690698184251325e-01 6.930641302632923034e-04 8.862253587289389486e-04
7.661000000000000275e-04 7.192254882508629654e-01 8.328184776562496576e-04 9.702780530519144065e-04
1.262000000000000101e-03 1.185459127778160093e+00 1.338484980802662205e-03 1.198863597978450275e-03
1.894999999999999983e-03 1.780909071169781921e+00 2.123481960401060308e-03 1.437771491635827115e-03
2.673000000000000029e-03 2.513147344746868850e+00 3.261860252001994032e-03 1.671524566936786766e-03
3.605999999999999830e-03 3.391736073717691369e+00 4.828136641022434151e-03 1.893900408978071038e-03
4.709999999999999777e-03 4.431905410739045870e+00 6.903512974832482635e-03 2.096551352830673849e-03
7.496000000000000059e-03 7.058993649504918366e+00 1.289742191321638018e-02 2.466596387205546859e-03
1.119999999999999989e-02 1.055540362104863661e+01 2.212077014004794340e-02 2.809304433764861584e-03
1.600000000000000033e-02 1.509117352747679952e+01 3.559566804390756900e-02 3.132325055719984222e-03
2.206999999999999934e-02 2.083310616724802244e+01 5.457322122755020599e-02 3.477840948757840792e-03
2.947999999999999926e-02 2.785007348564149154e+01 8.049103664263126956e-02 3.909302116317729670e-03
4.268000000000000266e-02 4.036707211535221518e+01 1.353887601042819133e-01 4.862066536253286525e-03
6.219999999999999835e-02 5.891246509830522626e+01 2.419691225623893105e-01 6.630786177272363080e-03
7.316999999999999893e-02 6.935151695866235855e+01 3.161896974764099033e-01 7.588671314871411888e-03
7.595999999999999974e-02 7.200836722020332559e+01 3.371250777904805096e-01 8.170805199905812125e-03
7.685877551020407761e-02 7.286441689744012251e+01 3.442227846386495815e-01 8.411649409392625912e-03
7.775755102040816935e-02 7.372055084707010053e+01 3.515388296374767907e-01 8.679227474304421555e-03
7.865632653061224722e-02 7.457677074779475390e+01 3.590956252249206115e-01 8.972289142180775445e-03
7.955510204081632508e-02 7.543307849002697196e+01 3.669145233165805320e-01 9.289584160561289994e-03
8.045387755102040295e-02 7.628947615673311589e+01 3.750158152184278615e-01 9.629862276985562408e-03
8.135265306122449469e-02 7.714596600512972202e+01 3.834187315407235896e-01 9.991873238993179487e-03
8.225142857142857256e-02 7.800255044918868919e+01 3.921414421031841901e-01 1.037436679412373150e-02
8.315020408163265042e-02 7.885923204290578781e+01 4.012010558225577173e-01 1.077609268991681565e-02
8.404897959183672829e-02 7.971601346429109469e+01 4.106136205747871748e-01 1.119580067391201875e-02
8.494775510204082003e-02 8.057289750004306939e+01 4.203941230248932626e-01 1.163224049364894840e-02
8.584653061224489790e-02 8.142988703086862756e+01 4.305564884185889563e-01 1.208416189666717926e-02
8.674530612244897576e-02 8.228698501741652649e+01 4.411135803304663261e-01 1.255031463050631027e-02
8.764408163265305363e-02 8.314419448678972913e+01 4.520772003643599435e-01 1.302944844270594038e-02
8.854285714285714537e-02 8.400151851960868044e+01 4.634580878022146466e-01 1.352031308080565986e-02
8.944163265306122323e-02 8.485896023759536888e+01 4.752659191984520137e-01 1.402165829234505376e-02
9.034040816326530110e-02 8.571652279165267885e+01 4.875093079174619981e-01 1.453223382486371756e-02
9.123918367346939284e-02 8.657420935041284338e+01 5.001958036124282136e-01 1.505078942590125542e-02
9.213795918367347071e-02 8.743202308923152088e+01 5.133318916442497493e-01 1.557607484299724544e-02
9.303673469387754857e-02 8.828996717960610852e+01 5.269229924398399767e-01 1.610683982369128311e-02
9.393551020408162644e-02 8.914804477899534163e+01 5.409734607895606562e-01 1.664183411552296737e-02
9.483428571428570431e-02 9.000625902102292741e+01 5.554865850840128294e-01 1.717980746603188502e-02
9.573306122448979605e-02 9.086461300604335634e+01 5.704645864908289843e-01 1.771950962275764194e-02
9.663183673469387391e-02 9.172310979205559534e+01 5.859086180725142645e-01 1.825969033323980931e-02
9.753061224489795178e-02 9.258175238594510859e+01 6.018187638467682454e-01 1.879909934501798954e-02
9.842938775510204352e-02 9.344054373504074817e+01 6.181940377910698503e-01 1.933648640563178853e-02
9.932816326530612139e-02 9.429948671896978851e+01 6.350323827936498189e-01 1.987060126262078091e-02
1.002269387755101993e-01 9.515858414179893998e+01 6.523306695532974375e-01 2.040019366352456218e-02
1.011257142857142910e-01 9.601783872444613621e+01 6.700846954307402292e-01 2.092401335588274167e-02
1.020244897959183689e-01 9.687725309735287738e+01 6.882891832546301769e-01 2.144081008723488363e-02
1.029232653061224467e-01 9.773682979340293286e+01 7.069377800854381722e-01 2.194933360512059395e-02
1.038220408163265246e-01 9.859657124107792470e+01 7.260230559408087370e-01 2.244833365707947503e-02
1.047208163265306025e-01 9.945647975783920458e+01 7.455365024861796419e-01 2.293655999065110848e-02
1.056195918367346942e-01 1.003165575437244286e+02 7.654685316946958640e-01 2.341276235337509670e-02
1.065183673469387721e-01 1.011768066751514112e+02 7.858084744806667077e-01 2.387569049279102129e-02
1.074171428571428499e-01 1.020372290989193544e+02 8.065445793110316286e-01 2.432409415643848466e-02
1.083159183673469417e-01 1.028978266263988957e+02 8.276640107994863715e-01 2.475672309185707187e-02
1.092146938775510195e-01 1.037586009279033448e+02 8.491528482881216533e-01 2.517232704658637840e-02
1.101134693877550974e-01 1.046195535272335775e+02 8.709960844216056985e-01 2.556965576816599278e-02
1.110122448979591891e-01 1.054806857963891957e+02 8.931776237191069168e-01 2.594745900413552089e-02
1.119110204081632531e-01 1.063419989504398302e+02 9.156802811493255367e-01 2.630448650203453739e-02
1.128097959183673449e-01 1.072034940425489538e+02 9.384857807141629982e-01 2.663948800940264816e-02
1.137085714285714227e-01 1.080651719591459567e+02 9.615747540466903498e-01 2.695121327377944173e-02
1.146073469387755006e-01 1.089270334152391513e+02 9.849267390292498758e-01 2.723841204270451011e-02
1.155061224489795924e-01 1.097890789498655693e+02 1.008520178437632753e+00 2.749983406371745570e-02
1.164048979591836702e-01 1.106513089216712871e+02 1.032332418617424308e+00 2.773422908435785664e-02
1.173036734693877481e-01 1.115137235046190227e+02 1.056339708198733573e+00 2.794034685216530839e-02
1.182024489795918398e-01 1.123763226838167384e+02 1.080517196855635076e+00 2.811693711467941684e-02
1.191012244897959177e-01 1.132391062514644204e+02 1.104838934116773252e+00 2.826274961943975317e-02
1.199999999999999956e-01 1.141020738029141057e+02 1.129277868233695026e+00 2.837653411398592326e-02
1.215499964412691675e-01 1.155907476372193656e+02 1.171623523629776731e+00 2.851390319394438502e-02
1.230999928825383533e-01 1.170799628286815164e+02 1.214182240452717387e+00 2.864199417339024362e-02
1.246499893238075252e-01 1.185697151560599707e+02 1.256940082227394395e+00 2.876062324820376909e-02
1.261999857650767110e-01 1.200600003279716930e+02 1.299882818603404600e+00 2.886960490544630484e-02
1.277499822063458690e-01 1.215508139818494726e+02 1.342995922553994692e+00 2.896875186831181920e-02
1.292999786476150548e-01 1.230421516829154172e+02 1.386264567503340706e+00 2.905787504141687724e-02
1.308499750888842406e-01 1.245340089231695515e+02 1.429673624382950647e+00 2.913678345638472458e-02
1.323999715301533986e-01 1.260263811203907522e+02 1.473207658617948779e+00 2.920528421767974378e-02
1.339499679714225844e-01 1.275192636171482690e+02 1.516850927043926545e+00 2.926318244864644855e-02
1.354999644126917702e-01 1.290126516798241596e+02 1.560587374754995871e+00 2.931028123770775679e-02
1.370499608539609282e-01 1.305065404976427601e+02 1.604400631883649009e+00 2.934638158467433797e-02
1.385999572952301140e-01 1.320009251817076574e+02 1.648274010312957838e+00 2.937128234712048716e-02
1.401499537364992998e-01 1.334958007640453843e+02 1.692190500321594460e+00 2.938478018677911571e-02
1.416999501777684578e-01 1.349911621966524820e+02 1.736132767162127166e+00 2.938666951590997167e-02
1.432499466190376436e-01 1.364870043505476360e+02 1.780083147572971036e+00 2.937674244359570960e-02
1.447999430603068294e-01 1.379833220148265127e+02 1.824023646224331774e+00 2.935478872192037736e-02
1.463499395015759874e-01 1.394801098957179875e+02 1.867935932098446772e+00 2.932059569198667073e-02
1.478999359428451732e-01 1.409773626156427895e+02 1.911801334804367425e+00 2.927394822972775867e-02
1.494499323841143590e-01 1.424750747122713221e+02 1.955600840827480758e+00 2.921462869147211511e-02
1.509999288253835448e-01 1.439732406375828191e+02 1.999315089713947780e+00 2.914241685921878031e-02
1.525499252666527028e-01 1.454718547569223404e+02 2.042924370190169370e+00 2.905708988558367706e-02
1.540999217079218886e-01 1.469709113480571148e+02 2.086408616217376277e+00 2.895842223837659726e-02
1.556499181491910466e-01 1.484704046002302675e+02 2.129747402981375437e+00 2.884618564477183650e-02
1.571999145904602324e-01 1.499703286132124447e+02 2.172919942817495897e+00 2.872014903503442018e-02
1.587499110317294182e-01 1.514706773963504247e+02 2.215905081070690397e+00 2.858007848576727891e-02
1.602999074729986040e-01 1.529714448676116945e+02 2.258681291890774379e+00 2.842573716264426217e-02
1.618499039142677620e-01 1.544726248526249037e+02 2.301226673962716074e+00 2.825688526259657538e-02
1.633999003555369478e-01 1.559742110837164546e+02 2.343518946171900819e+00 2.807327995542045068e-02
1.649498967968061058e-01 1.574761971989423444e+02 2.385535443204237716e+00 2.787467532477647461e-02
1.664998932380752916e-01 1.589785767411134998e+02 2.427253111081000725e+00 2.766082230855119659e-02
1.680498896793444774e-01 1.604813431568168482e+02 2.468648502628238983e+00 2.743146863855436615e-02
1.695998861206136632e-01 1.619844897954300791e+02 2.509697772880612909e+00 2.718635877952518473e-02
1.711498825618828212e-01 1.634880099081293849e+02 2.550376674419481571e+00 2.692523386742445152e-02
1.726998790031520070e-01 1.649918966468919166e+02 2.590660552645079218e+00 2.664783164698909454e-02
1.742498754444211650e-01 1.664961430634899102e+02 2.630524340982590470e+00 2.635388640852845063e-02
1.757998718856903508e-01 1.680007421084787325e+02 2.669942556021971392e+00 2.604312892394310130e-02
1.773498683269595366e-01 1.695056866301772800e+02 2.708889292591329490e+00 2.571528638194873345e-02
1.788998647682287224e-01 1.710109693736395968e+02 2.747338218763714313e+00 2.537008232248882944e-02
1.804498612094978804e-01 1.725165829796207504e+02 2.785262570797159665e+00 2.500723657032291602e-02
1.819998576507670662e-01 1.740225199835319074e+02 2.822635148007852646e+00 2.462646516777778835e-02
1.835498540920362243e-01 1.755287728143891002e+02 2.859428307576300732e+00 2.422748030665218544e-02
1.850998505333054100e-01 1.770353337937526135e+02 2.895613959286422290e+00 2.380999025926641352e-02
1.866498469745745958e-01 1.785421951346567369e+02 2.931163560197478812e+00 2.337369930865152226e-02
1.881998434158437816e-01 1.800493489405323260e+02 2.966048109248828002e+00 2.291830767787419662e-02
1.897498398571129397e-01 1.815567872041183648e+02 3.000238141797496816e+00 2.244351145849587253e-02
1.912998362983821254e-01 1.830645018063654845e+02 3.033703724088619769e+00 2.194900253816763069e-02
1.928498327396512835e-01 1.845724845153290801e+02 3.066414447658827314e+00 2.143446852736382441e-02
1.943998291809204693e-01 1.860807269850531895e+02 3.098339423672737958e+00 2.089959268526135269e-02
1.959498256221896550e-01 1.875892207544445967e+02 3.129447277192735744e+00 2.034405384477285667e-02
2.735835026503082301e-01 2.651262583951358920e+02 1.652181317770070379e+01 3.159014023606787069e-01
3.512171796784268052e-01 3.488894370319088694e+02 4.831421252917028397e+01 4.366502744058529117e-01
4.288508567065453803e-01 4.406617706424905236e+02 8.614357742170990662e+01 3.913491347525041020e-01
5.064845337346639553e-01 5.392971409920478436e+02 1.244446333495864678e+02 3.860964007854421065e-01
5.841182107627824749e-01 6.440174236057775943e+02 1.658613967000630680e+02 4.046198702507702305e-01
6.617518877909011055e-01 7.545317596978309211e+02 2.116182601941263215e+02 4.231433397160983545e-01
7.393855648190197360e-01 8.706766718464277801e+02 2.618587571472407376e+02 4.416668091814265340e-01
8.170192418471382556e-01 9.923390965074116821e+02 3.167402467640162058e+02 4.601902786467546580e-01
8.946529188752567752e-01 1.119443111561147361e+03 3.764313427426347403e+02 4.787137481120827820e-01
9.722865959033754057e-01 1.251941124493319876e+03 4.411103253378339559e+02 4.972372175774109060e-01
1.049920272931494036e+00 1.389807788769784111e+03 5.109641367236488918e+02 5.157606870427391410e-01
1.127553949959612556e+00 1.533035668060671014e+03 5.861877397661638724e+02 5.342841565080671540e-01
1.205187626987731075e+00 1.681632063843477681e+03 6.669837126612497968e+02 5.528076259733953890e-01
1.282821304015849817e+00 1.835616642569475971e+03 7.535620021055938196e+02 5.713310954387235130e-01
1.360454981043968337e+00 1.995019627556481964e+03 8.461397863496692935e+02 5.898545649040516370e-01
1.438088658072086856e+00 2.159880399252317147e+03 9.449414165534166159e+02 6.083780343693797610e-01
1.515722335100205376e+00 2.330246396939756778e+03 1.050198415392012521e+03 6.269015038347078850e-01
1.593356012128323895e+00 2.506172247024739590e+03 1.162149518550333823e+03 6.454249733000360090e-01
1.670989689156442637e+00 2.687713074453555237e+03 1.280305573135957047e+03 6.560967141916497214e-01
1.748623366184561156e+00 2.874868937372924847e+03 1.403492231343892172e+03 6.602908921572321344e-01
1.826257043212679676e+00 3.067593351099534175e+03 1.531152770136069648e+03 6.644850701228146583e-01
1.903890720240798418e+00 3.265840078251694649e+03 1.663303045935949740e+03 6.686792480883970713e-01
1.981524397268916937e+00 3.469567351711101310e+03 1.799961336749036946e+03 6.728734260539794843e-01
2.059158074297035235e+00 3.678737439306756187e+03 1.941148122501778289e+03 6.770676040195618972e-01
