# density  energy_density  pressure   sound_speed_squared  [All in nuclear units]
2.720000000000000022e-14 2.529924618736292620e-11 1.061056609100270887e-19 3.766610435412189122e-08
1.269999999999999890e-13 1.181251617980081254e-10 4.870113551826584858e-18 6.497781477172163475e-08
6.929999999999999754e-13 6.445728594625782745e-10 1.018299070687946017e-16 3.033770597342807186e-07
6.295000000000000137e-12 5.855111460395753757e-09 5.487150723824490656e-15 1.763710043904196507e-06
1.581000000000000150e-11 1.470523320212576141e-08 2.904239460150760759e-14 3.559434472327477622e-06
3.971999999999999958e-11 3.694456170323160790e-08 1.439340266754906811e-13 6.772854871245677111e-06
9.975999999999999982e-11 9.278976412613005154e-08 6.812143616221268841e-13 1.246890511177539320e-05
2.505999999999999928e-10 2.330928829758143313e-07 3.107749196951638608e-12 2.212095130576091967e-05
6.294000000000000186e-10 5.854398883216247602e-07 1.363250409771533549e-11 3.761981047239428883e-05
1.581000000000000021e-09 1.470619631082054101e-06 5.726014178088476303e-11 6.095350986710739404e-05
3.971999999999999932e-09 3.694861084648016046e-06 2.210019573374265380e-10 8.628023653304385055e-05
5.000000000000000105e-09 4.651201787816927976e-06 3.071485916280120014e-10 9.387863480799757518e-05
9.975999999999999465e-09 9.280587964640925786e-06 8.385361004129998845e-10 1.356922228656245837e-04
1.989999999999999952e-08 1.851419242998081003e-05 2.287763168863418088e-09 1.782101978513718314e-04
3.972999999999999908e-08 3.696699295748789187e-05 6.061583099087538954e-09 2.308134738384234820e-04
7.925999999999999637e-08 7.375765469301719828e-05 1.575347858094044765e-08 2.960532096713864875e-04
1.580999999999999930e-07 1.471491184379128891e-04 3.910429618672550719e-08 3.402859755131850544e-04
1.991000000000000027e-07 1.853209783927820692e-04 5.252045687899177454e-08 3.626488188833278743e-04
3.155999999999999938e-07 2.938002528823880299e-04 9.730770378831954314e-08 4.630767356912104081e-04
5.000999999999999849e-07 4.656344063839075714e-04 1.837494945860225819e-07 5.430301232045120323e-04
6.295999999999999732e-07 5.862651417037388971e-04 2.503103884558263872e-07 5.605192962670089638e-04
9.666999999999999941e-07 9.003386739730535665e-04 4.324450868778576936e-07 5.993081670211623108e-04
1.531999999999999901e-06 1.427170885631398036e-03 7.780217275717420968e-07 7.125938556504039095e-04
2.506999999999999883e-06 2.336134972129507662e-03 1.471005394641589826e-06 8.121876172121876309e-04
3.974000000000000407e-06 3.704315759716615697e-03 2.695705763844323844e-06 9.780674166779417152e-04
4.830000000000000343e-06 4.502887798316278223e-03 3.503988717694660908e-06 1.046253037768318664e-03
6.080999999999999885e-06 5.670217999231269741e-03 4.731126407333307547e-06 1.056224360839501646e-03
7.930000000000000308e-06 7.396012414119570652e-03 6.599662989063778187e-06 1.109203753630785610e-03
9.982000000000000313e-06 9.311815711689977113e-03 8.879881089227186733e-06 1.271216815433141075e-03
1.256999999999999993e-05 1.172874412604260098e-02 1.207676739913533738e-05 1.374195438212825332e-03
1.521999999999999997e-05 1.420427250933824909e-02 1.547541302213394990e-05 1.371610497379100249e-03
1.991000000000000080e-05 1.858690797761085312e-02 2.160710455847765458e-05 1.426578142835871997e-03
2.506999999999999883e-05 2.341050104039446925e-02 2.908031724375689851e-05 1.672007475975408053e-03
2.790999999999999875e-05 2.606604784714952258e-02 3.357009132255487721e-05 1.709425557744154774e-03
3.806999999999999973e-05 3.556967988784798945e-02 4.986781576435106434e-05 1.720407281314112165e-03
5.063000000000000145e-05 4.732434580343149871e-02 7.073400252905581275e-05 1.829889149838781265e-03
6.592000000000000583e-05 6.164112392498975052e-02 9.765037643900635188e-05 1.930242980462695823e-03
8.433000000000000066e-05 7.888776783401378612e-02 1.317235490470395893e-04 2.021055815200022837e-03
1.062000000000000064e-04 9.938561165478684845e-02 1.740088341640037047e-04 2.104789529260958983e-03
1.321000000000000126e-04 1.236720406455826121e-01 2.260189757651373944e-04 2.178291718403657477e-03
1.623999999999999901e-04 1.520974545104751274e-01 2.888169908545388338e-04 2.240170365918073281e-03
1.689999999999999879e-04 1.582907717069566844e-01 3.027354772999506964e-04 2.254509350360745651e-03
1.758999999999999930e-04 1.647661861691531171e-01 3.173785841705756782e-04 2.268169273277113179e-03
1.830000000000000029e-04 1.714298948183871907e-01 3.325196584577469103e-04 2.276170334580628063e-03
1.901999999999999882e-04 1.781880600978280049e-01 3.479577791899843742e-04 2.292561569242367037e-03
1.977000000000000079e-04 1.852284385240466902e-01 3.641242634600037713e-04 2.299943765467868384e-03
2.054000000000000053e-04 1.924572004474696396e-01 3.808304060475003897e-04 2.322187632288155723e-03
2.079000000000000119e-04 1.948043378760714872e-01 3.864137987380476553e-04 2.435429768083530178e-03
2.081999999999999921e-04 1.950859988578999005e-01 3.870314100985603909e-04 1.950065624557156818e-03
2.090999999999999868e-04 1.959309855029948977e-01 3.881261957135444685e-04 6.411875526909013856e-04
2.159999999999999919e-04 2.024093317906446865e-01 3.940874488768042125e-04 1.199166870571831411e-03
2.231000000000000019e-04 2.090756740932291913e-01 4.013938420547467825e-04 9.928616047829054436e-04
2.311000000000000066e-04 2.165873044433437034e-01 4.085241694843774404e-04 9.056166966301716637e-04
2.401000000000000085e-04 2.250381721984245909e-01 4.159700687886608468e-04 8.565463878902855599e-04
2.500000000000000052e-04 2.343344406330727658e-01 4.237602369176299592e-04 8.194318812157330018e-04
2.642999999999999733e-04 2.477629128650125634e-01 4.345596643180389446e-04 7.890063723638815647e-04
3.052999999999999941e-04 2.862671839140227270e-01 4.644058706720978241e-04 7.612775562167708662e-04
3.533000000000000224e-04 3.313503829113090826e-01 4.987577676308450197e-04 7.626578558207241024e-04
4.075999999999999871e-04 3.823564017794535141e-01 5.381334366106255759e-04 7.813048116943254948e-04
4.679999999999999915e-04 4.390986251953180042e-01 5.832692638200615834e-04 8.096035963157804938e-04
5.341000000000000261e-04 5.012024644415256081e-01 6.346556894078133086e-04 8.452514814113673558e-04
6.059000000000000366e-04 5.686690698184251325e-01 6.930641302632923034e-04 8.862253587289389486e-04
7.661000000000000275e-04 7.192254882508629654e-01 8.328184776562496576e-04 9.702780530519144065e-04
1.262000000000000101e-03 1.185459127778160093e+00 1.338484980802662205e-03 1.198863597978450275e-03
1.894999999999999983e-03 1.780909071169781921e+00 2.123481960401060308e-03 1.437771491635827115e-03
2.673000000000000029e-03 2.513147344746868850e+00 3.261860252001994032e-03 1.671524566936786766e-03
3.605999999999999830e-03 3.391736073717691369e+00 4.828136641022434151e-03 1.893900408978071038e-03
4.709999999999999777e-03 4.431905410739045870e+00 6.903512974832482635e-03 2.096551352830673849e-03
7.496000000000000059e-03 7.058993649504918366e+00 1.289742191321638018e-02 2.466596387205546859e-03
1.119999999999999989e-02 1.055540362104863661e+01 2.212077014004794340e-02 2.809304433764861584e-03
1.600000000000000033e-02 1.509117352747679952e+01 3.559566804390756900e-02 3.132325055719984222e-03
2.206999999999999934e-02 2.083310616724802244e+01 5.457322122755020599e-02 3.477840948757840792e-03
2.947999999999999926e-02 2.785007348564149154e+01 8.049103664263126956e-02 3.909302116317729670e-03
4.268000000000000266e-02 4.036707211535221518e+01 1.353887601042819133e-01 4.862066536253286525e-03
6.219999999999999835e-02 5.891246509830522626e+01 2.419691225623893105e-01 6.630786177272363080e-03
7.316999999999999893e-02 6.935151695866235855e+01 3.161896974764099033e-01 7.588671314871411888e-03
7.595999999999999974e-02 7.200836722020332559e+01 3.371250777904805096e-01 8.170805199905810390e-03
7.685877551020407761e-02 7.286441679385676196e+01 3.442050577024900471e-01 8.370237792186959250e-03
7.775755102040816935e-02 7.372055015990666504e+01 3.514564475436095514e-01 8.569614298009290559e-03
7.865632653061224722e-02 7.457676833145174555e+01 3.588793015804751518e-01 8.769075071284130815e-03
7.955510204081632508e-02 7.543307229974293193e+01 3.664737946814403680e-01 8.968760465922820391e-03
8.045387755102040295e-02 7.628946303628690373e+01 3.742402223670101002e-01 9.168810835836684048e-03
8.135265306122449469e-02 7.714594149485579067e+01 3.821790008628435098e-01 9.369366534937062160e-03
8.225142857142857256e-02 7.800250861340916231e+01 3.902906671552184847e-01 9.570567917135274286e-03
8.315020408163265042e-02 7.885916531593251477e+01 3.985758790488648784e-01 9.772555336342664267e-03
8.404897959183672829e-02 7.971591251419650348e+01 4.070354152270835302e-01 9.975469146470553397e-03
8.494775510204082003e-02 8.057275110944230789e+01 4.156701753140814581e-01 1.017944970143028205e-02
8.584653061224489790e-02 8.142968199399545881e+01 4.244811799394623830e-01 1.038463735513317325e-02
8.674530612244897576e-02 8.228670605281332939e+01 4.334695708048240115e-01 1.059117246149056911e-02
8.764408163265305363e-02 8.314382416496933104e+01 4.426366107524187243e-01 1.079919537441379265e-02
8.854285714285714537e-02 8.400103720507635785e+01 4.519836838358463615e-01 1.100884644781418252e-02
8.944163265306122323e-02 8.485834604465345876e+01 4.615122953927532912e-01 1.122026603560306347e-02
9.034040816326530110e-02 8.571575155343857944e+01 4.712240721195227744e-01 1.143359449169177068e-02
9.123918367346939284e-02 8.657325460064927825e+01 4.811207621479429708e-01 1.164897216999163931e-02
9.213795918367347071e-02 8.743085605619492640e+01 4.912042351238506965e-01 1.186653942441399587e-02
9.303673469387754857e-02 8.828855679184214011e+01 5.014764822877543216e-01 1.208643660887017031e-02
9.393551020408162644e-02 8.914635768233641500e+01 5.119396165574408020e-01 1.230880407727150475e-02
9.483428571428570431e-02 9.000425960648080093e+01 5.225958726125834453e-01 1.253378218352931700e-02
9.573306122448979605e-02 9.086226344817521294e+01 5.334476069813667287e-01 1.276151128155495092e-02
9.663183673469387391e-02 9.172037009741750069e+01 5.444972981291524849e-01 1.299213172525973126e-02
9.753061224489795178e-02 9.257858045126758384e+01 5.557475465492163202e-01 1.322578386855499319e-02
9.842938775510204352e-02 9.343689541477731098e+01 5.672010748555840198e-01 1.346260806535206668e-02
9.932816326530612139e-02 9.429531590188717871e+01 5.788607278780053544e-01 1.370274466956228343e-02
1.002269387755101993e-01 9.515384283629130380e+01 5.907294727591066996e-01 1.394633403509697514e-02
1.011257142857142910e-01 9.601247715227265189e+01 6.028103990537628798e-01 1.419351651586747871e-02
1.020244897959183689e-01 9.687121979550855144e+01 6.151067188307369760e-01 1.444443246578511544e-02
1.029232653061224467e-01 9.773007172384981800e+01 6.276217667766391672e-01 1.469922223876122397e-02
1.038220408163265246e-01 9.858903390807296319e+01 6.403590003022551214e-01 1.495802618870713599e-02
1.047208163265306025e-01 9.944810733260734992e+01 6.533219996513019989e-01 1.522098466953417974e-02
1.056195918367346942e-01 1.003072929962383597e+02 6.665144680116703579e-01 1.548823803515369385e-02
1.065183673469387721e-01 1.011665919127878084e+02 6.799402316292120219e-01 1.575992663947700309e-02
1.074171428571428499e-01 1.020260051117719655e+02 6.936032399241409685e-01 1.603619083641544263e-02
1.083159183673469417e-01 1.028855336390387833e+02 7.075075656101096344e-01 1.631717097988034590e-02
1.092146938775510195e-01 1.037451785573848468e+02 7.216574048160302457e-01 1.660300742378303940e-02
1.101134693877550974e-01 1.046049409471533238e+02 7.360570772107145610e-01 1.689384052203485656e-02
1.110122448979591891e-01 1.054648219068130999e+02 7.507110261304001941e-01 1.718981062854713082e-02
1.119110204081632531e-01 1.063248225535202351e+02 7.656238187092395675e-01 1.749105809723118868e-02
1.128097959183673449e-01 1.071849440236624673e+02 7.808001460128323190e-01 1.779772328199837744e-02
1.137085714285714227e-01 1.080451874733876423e+02 7.962448231748691096e-01 1.810994653676000973e-02
1.146073469387755006e-01 1.089055540791163992e+02 8.119627895369789794e-01 1.842786821542742939e-02
1.155061224489795924e-01 1.097660450380396355e+02 8.279591087918527492e-01 1.875162867191196639e-02
1.164048979591836702e-01 1.106266615686017900e+02 8.442389691297277343e-01 1.908136826012494375e-02
1.173036734693877481e-01 1.114874049109709659e+02 8.608076833883222534e-01 1.941722733397770184e-02
1.182024489795918398e-01 1.123482763274943892e+02 8.776706892062999810e-01 1.975934624738157411e-02
1.191012244897959177e-01 1.132092771031425258e+02 8.948335491803549591e-01 2.010786535424788704e-02
1.199999999999999956e-01 1.140704085459406087e+02 9.123019510260067522e-01 2.046292500848797408e-02
1.212716059193536255e-01 1.152889809422663916e+02 9.375500251187640632e-01 2.097580145449560660e-02
1.225432118387072417e-01 1.165078214080391348e+02 9.634344787507004293e-01 2.149804699497177493e-02
1.238148177580608716e-01 1.177269338263427301e+02 9.899671325310275272e-01 2.202972174630183841e-02
1.250864236774144878e-01 1.189463221223512619e+02 1.017159894871534576e+00 2.257088541686991592e-02
1.263580295967681177e-01 1.201659902629375125e+02 1.045024761854012274e+00 2.312159730059826224e-02
1.276296355161217477e-01 1.213859422562951522e+02 1.073573817094577665e+00 2.368191627010010278e-02
1.289012414354753777e-01 1.226061821515757373e+02 1.102819231604440953e+00 2.425190076946936654e-02
1.301728473548290077e-01 1.238267140385372471e+02 1.132773263646661643e+00 2.483160880672540330e-02
1.314444532741826377e-01 1.250475420472062495e+02 1.163448258588471562e+00 2.542109794593244709e-02
1.327160591935362677e-01 1.262686703475506533e+02 1.194856648748763739e+00 2.602042529901286982e-02
1.339876651128898699e-01 1.274901031491640850e+02 1.227010953240361024e+00 2.662964751727135357e-02
1.352592710322434999e-01 1.287118447009609667e+02 1.259923777806705614e+00 2.724882078264428270e-02
1.365308769515971299e-01 1.299338992908805039e+02 1.293607814652611099e+00 2.787800079869345860e-02
1.378024828709507599e-01 1.311562712456012036e+02 1.328075842268760187e+00 2.851724278135562077e-02
1.390740887903043899e-01 1.323789649302634643e+02 1.363340725249623020e+00 2.916660144946500374e-02
1.403456947096580198e-01 1.336019847482013745e+02 1.399415414104501210e+00 2.982613101505990003e-02
1.416173006290116498e-01 1.348253351406816023e+02 1.436312945061409829e+00 3.049588517348798475e-02
1.428889065483652798e-01 1.360490205866506415e+02 1.474046439863525126e+00 3.117591709332205932e-02
1.441605124677188821e-01 1.372730456024887360e+02 1.512629105557937281e+00 3.186627940609827736e-02
1.454321183870725120e-01 1.384974147417709673e+02 1.552074234276465514e+00 3.256702419588840269e-02
1.467037243064261420e-01 1.397221325950341395e+02 1.592395203008285964e+00 3.327820298871671939e-02
1.479753302257797720e-01 1.409472037895505423e+02 1.633605473364164062e+00 3.399986674183264057e-02
1.492469361451334020e-01 1.421726329891068588e+02 1.675718591332064022e+00 3.473206583284885185e-02
1.505185420644870320e-01 1.433984248937885582e+02 1.718748187023933616e+00 3.547485004875481490e-02
1.517901479838406620e-01 1.446245842397698027e+02 1.762707974413468603e+00 3.622826857481510621e-02
1.530617539031942642e-01 1.458511157991071912e+02 1.807611751064668537e+00 3.699236998336193766e-02
1.543333598225478942e-01 1.470780243795395563e+02 1.853473397851011395e+00 3.776720222249031061e-02
1.556049657419015242e-01 1.483053148242906047e+02 1.900306878665061650e+00 3.855281260466458804e-02
1.568765716612551542e-01 1.495329920118763880e+02 1.948126240118370101e+00 3.934924779524488075e-02
1.581481775806087842e-01 1.507610608559162415e+02 1.996945611231494722e+00 4.015655380094099169e-02
1.594197834999624142e-01 1.519895263049471339e+02 2.046779203114000634e+00 4.097477595820201574e-02
1.606913894193160441e-01 1.532183933422420523e+02 2.097641308634298873e+00 4.180395892154918636e-02
1.619629953386696464e-01 1.544476669856306899e+02 2.149546302079187843e+00 4.264414665185912306e-02
1.632346012580232764e-01 1.556773522873232878e+02 2.202508638802976204e+00 4.349538240460518873e-02
1.645062071773769063e-01 1.569074543337373200e+02 2.256542854866050440e+00 4.435770871806347243e-02
1.657778130967305363e-01 1.581379782453268490e+02 2.311663566662791158e+00 4.523116740149080856e-02
1.670494190160841663e-01 1.593689291764137579e+02 2.367885470538716230e+00 4.611579952328116044e-02
1.683210249354377963e-01 1.606003123150215401e+02 2.425223342396747750e+00 4.701164539910761969e-02
1.695926308547914263e-01 1.618321328827107095e+02 2.483692037292508648e+00 4.791874458005564857e-02
1.708642367741450285e-01 1.630643961344169952e+02 2.543306489018549943e+00 4.883713584075468489e-02
1.721358426934986585e-01 1.642971073582898498e+02 2.604081709677432244e+00 4.976685716751438199e-02
1.734074486128522885e-01 1.655302718755334865e+02 2.666032789243553580e+00 5.070794574647074365e-02
1.746790545322059185e-01 1.667638950402492810e+02 2.729174895113676946e+00 5.166043795174987685e-02
1.759506604515595485e-01 1.679979822392793096e+02 2.793523271646060735e+00 5.262436933365371994e-02
1.772222663709131785e-01 1.692325388920505418e+02 2.859093239688133448e+00 5.359977460687477546e-02
1.784938722902668085e-01 1.704675704504203964e+02 2.925900196092643846e+00 5.458668763874539864e-02
1.797654782096204107e-01 1.717030823985246286e+02 2.993959613222230143e+00 5.558514143752729675e-02
1.810370841289740407e-01 1.729390802526228583e+02 3.063287038442358501e+00 5.659516814074752600e-02
1.823086900483276707e-01 1.741755695609479631e+02 3.133898093602558443e+00 5.761679900358581546e-02
2.602207575983618293e-01 2.513629210144446517e+02 1.101454108845760871e+01 1.450567517575761523e-01
3.381328251483959324e-01 3.319082362068251086e+02 2.630729101907168399e+01 2.324967045115664543e-01
4.160448926984300355e-01 4.168516858386798845e+02 4.988439102101266087e+01 3.199366572655567009e-01
4.939569602484641941e-01 5.070183955044206527e+02 8.281654141989457685e+01 4.073766100195470585e-01
5.718690277984983528e-01 6.031533147060533793e+02 1.263563848205699855e+02 4.948165627735373606e-01
6.497810953485324559e-01 7.059798189729193609e+02 1.819414425996648106e+02 5.822565155275276627e-01
7.276931628985665590e-01 8.162305730194374291e+02 2.512057259921883485e+02 6.696964682815179648e-01
8.056052304486007731e-01 9.346665183368555745e+02 3.359965158441012818e+02 7.571364210355083779e-01
8.835172979986347652e-01 1.062090248080477068e+03 4.383950145326364236e+02 8.445763737894984580e-01
9.614293655486689794e-01 1.199286473922220466e+03 5.497556985763568491e+02 7.829074378456797323e-01
1.039341433098703193e+00 1.344820097603338354e+03 6.265410198359174956e+02 2.882857083280415678e-01
1.117253500648737186e+00 1.493784306589485595e+03 6.562722681833004117e+02 1.124482797943612833e-01
1.195165568198771400e+00 1.644275046536873106e+03 6.725049122859577437e+02 1.033266527134577284e-01
1.273077635748805614e+00 1.795783988303756132e+03 6.874659659882202050e+02 9.420502563255417350e-02
1.350989703298839606e+00 1.948169867911544770e+03 7.011241047614399804e+02 8.508339855165063248e-02
1.428901770848873820e+00 2.101306078779291965e+03 7.134530663849052416e+02 7.596177147074706371e-02
1.506813838398908034e+00 2.255125062778195570e+03 7.263203886316244962e+02 9.130930377010978982e-02
1.584725905948942026e+00 2.409731014054471871e+03 7.443204547287650712e+02 1.413832873295123305e-01
1.662637973498976240e+00 2.565409023004300252e+03 7.702457851840467811e+02 1.914572708889149821e-01
1.740550041049010233e+00 2.722484409452025830e+03 8.042741966269737759e+02 2.415312544483174950e-01
1.818462108599044447e+00 2.881262227710743446e+03 8.466270359664754324e+02 2.916052380077202022e-01
1.896374176149078661e+00 3.042031688148751982e+03 8.975665136556466450e+02 3.416792215671228261e-01
1.974286243699112653e+00 3.205069756838600824e+03 9.573938448223592559e+02 3.917532051265253390e-01
2.052198311249146645e+00 3.370644124591566651e+03 1.026448030476753956e+03 4.418271886859278519e-01
