# density  energy_density  pressure   sound_speed_squared  [All in nuclear units]
2.720000000000000022e-14 2.529924618736292620e-11 1.061056609100270887e-19 3.766610435412189122e-08
1.269999999999999890e-13 1.181251617980081254e-10 4.870113551826584858e-18 6.497781477172163475e-08
6.929999999999999754e-13 6.445728594625782745e-10 1.018299070687946017e-16 3.033770597342807186e-07
6.295000000000000137e-12 5.855111460395753757e-09 5.487150723824490656e-15 1.763710043904196507e-06
1.581000000000000150e-11 1.470523320212576141e-08 2.904239460150760759e-14 3.559434472327477622e-06
3.971999999999999958e-11 3.694456170323160790e-08 1.439340266754906811e-13 6.772854871245677111e-06
9.975999999999999982e-11 9.278976412613005154e-08 6.812143616221268841e-13 1.246890511177539320e-05
2.505999999999999928e-10 2.330928829758143313e-07 3.107749196951638608e-12 2.212095130576091967e-05
6.294000000000000186e-10 5.854398883216247602e-07 1.363250409771533549e-11 3.761981047239428883e-05
1.581000000000000021e-09 1.470619631082054101e-06 5.726014178088476303e-11 6.095350986710739404e-05
3.971999999999999932e-09 3.694861084648016046e-06 2.210019573374265380e-10 8.628023653304385055e-05
5.000000000000000105e-09 4.651201787816927976e-06 3.071485916280120014e-10 9.387863480799757518e-05
9.975999999999999465e-09 9.280587964640925786e-06 8.385361004129998845e-10 1.356922228656245837e-04
1.989999999999999952e-08 1.851419242998081003e-05 2.287763168863418088e-09 1.782101978513718314e-04
3.972999999999999908e-08 3.696699295748789187e-05 6.061583099087538954e-09 2.308134738384234820e-04
7.925999999999999637e-08 7.375765469301719828e-05 1.575347858094044765e-08 2.960532096713864875e-04
1.580999999999999930e-07 1.471491184379128891e-04 3.910429618672550719e-08 3.402859755131850544e-04
1.991000000000000027e-07 1.853209783927820692e-04 5.252045687899177454e-08 3.626488188833278743e-04
3.155999999999999938e-07 2.938002528823880299e-04 9.730770378831954314e-08 4.630767356912104081e-04
5.000999999999999849e-07 4.656344063839075714e-04 1.837494945860225819e-07 5.430301232045120323e-04
6.295999999999999732e-07 5.862651417037388971e-04 2.503103884558263872e-07 5.605192962670089638e-04
9.666999999999999941e-07 9.003386739730535665e-04 4.324450868778576936e-07 5.993081670211623108e-04
1.531999999999999901e-06 1.427170885631398036e-03 7.780217275717420968e-07 7.125938556504039095e-04
2.506999999999999883e-06 2.336134972129507662e-03 1.471005394641589826e-06 8.121876172121876309e-04
3.974000000000000407e-06 3.704315759716615697e-03 2.695705763844323844e-06 9.780674166779417152e-04
4.830000000000000343e-06 4.502887798316278223e-03 3.503988717694660908e-06 1.046253037768318664e-03
6.080999999999999885e-06 5.670217999231269741e-03 4.731126407333307547e-06 1.056224360839501646e-03
7.930000000000000308e-06 7.396012414119570652e-03 6.599662989063778187e-06 1.109203753630785610e-03
9.982000000000000313e-06 9.311815711689977113e-03 8.879881089227186733e-06 1.271216815433141075e-03
1.256999999999999993e-05 1.172874412604260098e-02 1.207676739913533738e-05 1.374195438212825332e-03
1.521999999999999997e-05 1.420427250933824909e-02 1.547541302213394990e-05 1.371610497379100249e-03
1.991000000000000080e-05 1.858690797761085312e-02 2.160710455847765458e-05 1.426578142835871997e-03
2.506999999999999883e-05 2.341050104039446925e-02 2.908031724375689851e-05 1.672007475975408053e-03
2.790999999999999875e-05 2.606604784714952258e-02 3.357009132255487721e-05 1.709425557744154774e-03
3.806999999999999973e-05 3.556967988784798945e-02 4.986781576435106434e-05 1.720407281314112165e-03
5.063000000000000145e-05 4.732434580343149871e-02 7.073400252905581275e-05 1.829889149838781265e-03
6.592000000000000583e-05 6.164112392498975052e-02 9.765037643900635188e-05 1.930242980462695823e-03
8.433000000000000066e-05 7.888776783401378612e-02 1.317235490470395893e-04 2.021055815200022837e-03
1.062000000000000064e-04 9.938561165478684845e-02 1.740088341640037047e-04 2.104789529260958983e-03
1.321000000000000126e-04 1.236720406455826121e-01 2.260189757651373944e-04 2.178291718403657477e-03
1.623999999999999901e-04 1.520974545104751274e-01 2.888169908545388338e-04 2.240170365918073281e-03
1.689999999999999879e-04 1.582907717069566844e-01 3.027354772999506964e-04 2.254509350360745651e-03
1.758999999999999930e-04 1.647661861691531171e-01 3.173785841705756782e-04 2.268169273277113179e-03
1.830000000000000029e-04 1.714298948183871907e-01 3.325196584577469103e-04 2.276170334580628063e-03
1.901999999999999882e-04 1.781880600978280049e-01 3.479577791899843742e-04 2.292561569242367037e-03
1.977000000000000079e-04 1.852284385240466902e-01 3.641242634600037713e-04 2.299943765467868384e-03
2.054000000000000053e-04 1.924572004474696396e-01 3.808304060475003897e-04 2.322187632288155723e-03
2.079000000000000119e-04 1.948043378760714872e-01 3.864137987380476553e-04 2.435429768083530178e-03
2.081999999999999921e-04 1.950859988578999005e-01 3.870314100985603909e-04 1.950065624557156818e-03
2.090999999999999868e-04 1.959309855029948977e-01 3.881261957135444685e-04 6.411875526909013856e-04
2.159999999999999919e-04 2.024093317906446865e-01 3.940874488768042125e-04 1.199166870571831411e-03
2.231000000000000019e-04 2.090756740932291913e-01 4.013938420547467825e-04 9.928616047829054436e-04
2.311000000000000066e-04 2.165873044433437034e-01 4.085241694843774404e-04 9.056166966301716637e-04
2.401000000000000085e-04 2.250381721984245909e-01 4.159700687886608468e-04 8.565463878902855599e-04
2.500000000000000052e-04 2.343344406330727658e-01 4.237602369176299592e-04 8.194318812157330018e-04
2.642999999999999733e-04 2.477629128650125634e-01 4.345596643180389446e-04 7.890063723638815647e-04
3.052999999999999941e-04 2.862671839140227270e-01 4.644058706720978241e-04 7.612775562167708662e-04
3.533000000000000224e-04 3.313503829113090826e-01 4.987577676308450197e-04 7.626578558207241024e-04
4.075999999999999871e-04 3.823564017794535141e-01 5.381334366106255759e-04 7.813048116943254948e-04
4.679999999999999915e-04 4.390986251953180042e-01 5.832692638200615834e-04 8.096035963157804938e-04
5.341000000000000261e-04 5.012024644415256081e-01 6.346556894078133086e-04 8.452514814113673558e-04
6.059000000000000366e-04 5.686690698184251325e-01 6.930641302632923034e-04 8.862253587289389486e-04
7.661000000000000275e-04 7.192254882508629654e-01 8.328184776562496576e-04 9.702780530519144065e-04
1.262000000000000101e-03 1.185459127778160093e+00 1.338484980802662205e-03 1.198863597978450275e-03
1.894999999999999983e-03 1.780909071169781921e+00 2.123481960401060308e-03 1.437771491635827115e-03
2.673000000000000029e-03 2.513147344746868850e+00 3.261860252001994032e-03 1.671524566936786766e-03
3.605999999999999830e-03 3.391736073717691369e+00 4.828136641022434151e-03 1.893900408978071038e-03
4.709999999999999777e-03 4.431905410739045870e+00 6.903512974832482635e-03 2.096551352830673849e-03
7.496000000000000059e-03 7.058993649504918366e+00 1.289742191321638018e-02 2.466596387205546859e-03
1.119999999999999989e-02 1.055540362104863661e+01 2.212077014004794340e-02 2.809304433764861584e-03
1.600000000000000033e-02 1.509117352747679952e+01 3.559566804390756900e-02 3.132325055719984222e-03
2.206999999999999934e-02 2.083310616724802244e+01 5.457322122755020599e-02 3.477840948757840792e-03
2.947999999999999926e-02 2.785007348564149154e+01 8.049103664263126956e-02 3.909302116317729670e-03
4.268000000000000266e-02 4.036707211535221518e+01 1.353887601042819133e-01 4.862066536253286525e-03
6.219999999999999835e-02 5.891246509830522626e+01 2.419691225623893105e-01 6.630786177272363080e-03
7.316999999999999893e-02 6.935151695866235855e+01 3.161896974764099033e-01 7.588671314871411888e-03
7.595999999999999974e-02 7.200836722020332559e+01 3.371250777904805096e-01 8.170805199905812125e-03
7.685877551020407761e-02 7.286441676261824796e+01 3.441997117848550336e-01 8.357749273985169008e-03
7.775755102040816935e-02 7.372054995226163499e+01 3.514315323762458587e-01 8.536391918609092383e-03
7.865632653061224722e-02 7.457676759940606814e+01 3.588136286897512517e-01 8.707105424897334037e-03
7.955510204081632508e-02 7.543307041863181439e+01 3.663394061728800222e-01 8.870262083969657901e-03
8.045387755102040295e-02 7.628945903564473952e+01 3.740025866840935853e-01 9.026234186945827909e-03
8.135265306122449469e-02 7.714593399379087657e+01 3.817972085935104620e-01 9.175394024945602786e-03
8.225142857142857256e-02 7.800249576028413401e+01 3.897176268942714739e-01 9.318113889088741261e-03
8.315020408163265042e-02 7.885914473216290332e+01 3.977585133232018344e-01 9.454766070495003796e-03
8.404897959183672829e-02 7.971588124199051606e+01 4.059148564895271316e-01 9.585722860284150854e-03
8.494775510204082003e-02 8.057270556331361888e+01 4.141819620105209321e-01 9.711356549575946365e-03
8.584653061224489790e-02 8.142961791589010545e+01 4.225554526530673205e-01 9.832039429490145588e-03
8.674530612244897576e-02 8.228661847070071644e+01 4.310312684802261041e-01 9.948143791146514189e-03
8.764408163265305363e-02 8.314370735475350216e+01 4.396056670019780066e-01 1.006004192566480916e-02
8.854285714285714537e-02 8.400088465569336904e+01 4.482752233294202693e-01 1.016810612416479270e-02
8.944163265306122323e-02 8.485815042622563453e+01 4.570368303317614567e-01 1.027270867776622354e-02
9.034040816326530110e-02 8.571550468836348102e+01 4.658876987955451465e-01 1.037422187758886213e-02
9.123918367346939284e-02 8.657294743750823329e+01 4.748253575855998498e-01 1.047301801475246721e-02
9.213795918367347071e-02 8.743047864637003386e+01 4.838476538072830069e-01 1.056946938037680792e-02
9.303673469387754857e-02 8.828809826873718691e+01 4.929527529696509647e-01 1.066394826558163429e-02
9.393551020408162644e-02 8.914580624310153212e+01 5.021391391492425749e-01 1.075682696148671028e-02
9.483428571428570431e-02 9.000360249614668362e+01 5.114056151542232254e-01 1.084847775921179633e-02
9.573306122448979605e-02 9.086148694610535870e+01 5.207513026886873009e-01 1.093927294987665985e-02
9.663183673469387391e-02 9.171945950599247510e+01 5.301756425169655840e-01 1.102958482460105263e-02
9.753061224489795178e-02 9.257752008671894828e+01 5.396783946278327360e-01 1.111978567450473514e-02
9.842938775510204352e-02 9.343566860009288177e+01 5.492596383985501873e-01 1.121024779070747303e-02
9.932816326530612139e-02 9.429390496171190250e+01 5.589197727587233988e-01 1.130134346432902157e-02
1.002269387755101993e-01 9.515222909375307836e+01 5.686595163539923670e-01 1.139344498648914641e-02
1.011257142857142910e-01 9.601064092766357305e+01 5.784799077096066666e-01 1.148692464830760804e-02
1.020244897959183689e-01 9.686914040675745241e+01 5.883823053939738479e-01 1.158215474090415996e-02
1.029232653061224467e-01 9.772772748872209547e+01 5.983683881823040895e-01 1.167950755539856264e-02
1.038220408163265246e-01 9.858640214803875779e+01 6.084401552204994346e-01 1.177935538291058695e-02
1.047208163265306025e-01 9.944516437832101019e+01 6.185999261894714607e-01 1.188207051455998642e-02
1.056195918367346942e-01 1.003040141945732273e+02 6.288503414700942207e-01 1.198802524146651977e-02
1.065183673469387721e-01 1.011629516353750233e+02 6.391943623090267090e-01 1.209759185474995266e-02
1.074171428571428499e-01 1.020219767649919760e+02 6.496352709856667573e-01 1.221114264553004036e-02
1.083159183673469417e-01 1.028810896754185364e+02 6.601766709805156896e-01 1.232904990492655027e-02
1.092146938775510195e-01 1.037402904883530681e+02 6.708224871452604932e-01 1.245168592405923244e-02
1.101134693877550974e-01 1.045995793571104713e+02 6.815769658749014637e-01 1.257942299404785948e-02
1.110122448979591891e-01 1.054589564684729766e+02 6.924446752822686069e-01 1.271263340601218490e-02
1.119110204081632531e-01 1.063184220444828725e+02 7.034305053752928361e-01 1.285168945107196398e-02
1.128097959183673449e-01 1.071779763441789299e+02 7.145396682374195452e-01 1.299696342034696757e-02
1.137085714285714227e-01 1.080376196652785978e+02 7.257776982115579090e-01 1.314882760495695094e-02
1.146073469387755006e-01 1.088973523458095798e+02 7.371504520879913480e-01 1.330765429602167454e-02
1.155061224489795924e-01 1.097571747656900101e+02 7.486641092966761502e-01 1.347381578466090232e-02
1.164048979591836702e-01 1.106170873482624586e+02 7.603251721043784439e-01 1.364768436199438953e-02
1.173036734693877481e-01 1.114770905617813810e+02 7.721404658171137081e-01 1.382963231914189836e-02
1.182024489795918398e-01 1.123371849208568278e+02 7.841171389883603293e-01 1.402003194722319622e-02
1.191012244897959177e-01 1.131973709878554359e+02 7.962626636335391472e-01 1.421925553735802969e-02
1.199999999999999956e-01 1.140576493742611461e+02 8.085848354512604752e-01 1.442767538066616964e-02
1.229292268416063566e-01 1.168620618907034583e+02 8.500675374468885659e-01 1.515609420220137733e-02
1.258584536832127176e-01 1.196674876407798678e+02 8.936382147099801720e-01 1.590551083688405282e-02
1.287876805248190648e-01 1.224739523504352405e+02 9.393582431189574367e-01 1.667630292941747402e-02
1.317169073664254120e-01 1.252814819857068329e+02 9.872902720212846095e-01 1.746890824271082193e-02
1.346461342080317591e-01 1.280901027669731036e+02 1.037498400772387974e+00 1.828382580557081499e-02
1.375753610496381341e-01 1.308998411858448776e+02 1.090048358979888610e+00 1.912161697097244581e-02
1.405045878912444812e-01 1.337107240244928903e+02 1.145007690251012011e+00 1.998290638559803087e-02
1.434338147328508284e-01 1.365227783772290877e+02 1.202445939243324657e+00 2.086838287068833522e-02
1.463630415744571756e-01 1.393360316741762972e+02 1.262434841819565667e+00 2.177880021368326646e-02
1.492922684160635505e-01 1.421505117068783477e+02 1.325048518106584972e+00 2.271497786963826496e-02
1.522214952576698976e-01 1.449662466557142295e+02 1.390363668256395124e+00 2.367780157097082450e-02
1.551507220992762726e-01 1.477832651189932278e+02 1.458459770704308101e+00 2.466822384371207197e-02
1.580799489408826197e-01 1.506015961436172006e+02 1.529419282715139827e+00 2.568726442810430680e-02
1.610091757824889669e-01 1.534212692572058359e+02 1.603327843003732989e+00 2.673601060109122296e-02
1.639384026240953141e-01 1.562423145015860086e+02 1.680274476210559698e+00 2.781561739798803570e-02
1.668676294657016612e-01 1.590647624675562497e+02 1.760351799007131346e+00 2.892730773038926229e-02
1.697968563073080361e-01 1.618886443308397816e+02 1.843656227599341113e+00 3.007237239717159769e-02
1.727260831489143833e-01 1.647139918891458024e+02 1.930288186389826910e+00 3.125216998527257511e-02
1.756553099905207305e-01 1.675408376002627335e+02 2.020352317553013588e+00 3.246812665677185905e-02
1.785845368321271054e-01 1.703692146211114107e+02 2.113957691268679717e+00 3.372173581866907965e-02
1.815137636737334526e-01 1.731991568476846055e+02 2.211218016351833349e+00 3.501455767163835775e-02
1.844429905153397997e-01 1.760306989558112889e+02 2.312251851008322312e+00 3.634821863394289282e-02
1.873722173569461469e-01 1.788638764426740977e+02 2.417182813437009248e+00 3.772441063661270688e-02
1.903014441985525218e-01 1.816987256690201775e+02 2.526139791990576366e+00 3.914489028592498671e-02
1.932306710401588690e-01 1.845352839020013960e+02 2.639257154598040778e+00 4.061147788917507384e-02
1.961598978817652439e-01 1.873735893585831604e+02 2.756674957142958071e+00 4.212605633968932728e-02
1.990891247233715911e-01 1.902136812494612741e+02 2.878539150481959297e+00 4.369056985700814355e-02
2.020183515649779382e-01 1.930555998234273147e+02 3.005001785778907308e+00 4.530702257815419354e-02
2.049475784065842854e-01 1.958993864121217996e+02 3.136221217820322593e+00 4.697747699589985976e-02
2.078768052481906325e-01 1.987450834751190598e+02 3.272362305968069762e+00 4.870405223995942501e-02
2.108060320897969797e-01 2.015927346452809275e+02 3.413596612395409569e+00 5.048892219704985418e-02
2.137352589314033546e-01 2.044423847743228180e+02 3.560102597242514211e+00 5.233431346579454913e-02
2.166644857730097296e-01 2.072940799785330626e+02 3.712065810317341619e+00 5.424250314248309918e-02
2.195937126146160767e-01 2.101478676845832467e+02 3.869679078957406926e+00 5.621581643374799070e-02
2.225229394562224239e-01 2.130037966753726835e+02 4.033142691657369383e+00 5.825662409227438249e-02
2.254521662978287710e-01 2.158619171358445499e+02 4.202664577056512307e+00 6.036733967172396714e-02
2.283813931394351182e-01 2.187222806987123533e+02 4.378460477869120737e+00 6.255041659712615165e-02
2.313106199810414654e-01 2.215849404900369848e+02 4.560754119329310186e+00 6.480834504706994847e-02
2.342398468226478403e-01 2.244499511745890743e+02 4.749777371710140805e+00 6.714364864411810629e-02
2.371690736642541875e-01 2.273173690009344909e+02 4.945770406464694346e+00 6.955888094996291737e-02
2.400983005058605624e-01 2.301872518461778725e+02 5.148981845524300383e+00 7.205662176194901902e-02
2.430275273474669095e-01 2.330596592603002080e+02 5.359668903276012308e+00 7.463947320770293603e-02
2.459567541890732567e-01 2.359346525100212375e+02 5.578097520728034553e+00 7.731005563473802855e-02
2.488859810306796039e-01 2.388122946221213283e+02 5.804542491357665313e+00 8.007100329203975519e-02
2.518152078722859510e-01 2.416926504261528521e+02 6.039287578121772526e+00 8.292495980078912199e-02
2.547444347138922982e-01 2.445757865964696407e+02 6.282625621094554802e+00 8.587457341154978996e-02
2.576736615554986454e-01 2.474617716935054261e+02 6.534858635181453934e+00 8.892249204542761187e-02
2.606028883971050480e-01 2.503506762042254081e+02 6.796297897341555760e+00 9.207135811691816163e-02
2.635321152387113952e-01 2.532425725816775071e+02 7.067264022733513507e+00 9.532380313638479097e-02
3.397865618664928089e-01 3.309356806637944146e+02 2.942062046782961104e+01 4.640337805446790309e-01
4.160410084942741671e-01 4.162602730995809566e+02 7.662333765422370391e+01 6.296167950188287232e-01
4.922954551220555808e-01 5.113442398472615764e+02 1.268681920626284523e+02 4.411552545735770159e-01
5.685499017498369945e-01 6.130248393993834952e+02 1.618037516287098185e+02 2.526937141283252530e-01
6.448043483776184637e-01 7.184343087083509545e+02 1.840445104570986814e+02 1.707290864872911262e-01
7.210587950053997108e-01 8.262618084062416983e+02 2.036029867449304049e+02 1.918576607140215495e-01
7.973132416331811800e-01 9.362991755254050759e+02 2.258875447697010941e+02 2.129862349407520283e-01
8.735676882609626492e-01 1.048600755356129412e+03 2.510037344197309039e+02 2.341148091674825349e-01
9.498221348887438964e-01 1.163220760246283817e+03 2.790605190776618088e+02 2.552433833942129859e-01
1.026076581516525366e+00 1.280213579790188987e+03 3.101703466727328760e+02 2.763719576209434647e-01
1.102331028144306835e+00 1.399634003927095364e+03 3.444492285816996855e+02 2.975005318476739435e-01
1.178585474772088082e+00 1.521537389728218841e+03 3.820168247919665419e+02 3.186291060744044223e-01
1.254839921399869551e+00 1.645979790550129565e+03 4.229965343214548170e+02 3.397576803011348456e-01
1.331094368027651020e+00 1.773018059337595560e+03 4.675155902432646258e+02 3.608862545278653799e-01
1.407348814655432268e+00 1.902709933759997512e+03 5.157051588868856697e+02 3.820148287545958032e-01
1.483603261283213737e+00 2.035114108338244705e+03 5.677004429341179730e+02 4.031434029813263376e-01
1.559857707910995206e+00 2.170290297111278051e+03 6.236407882265905300e+02 4.242719772080567608e-01
1.636112154538776453e+00 2.308299289339702227e+03 6.836697941701630725e+02 4.454005514347871841e-01
1.712366601166557922e+00 2.449203000039380640e+03 7.479354276700635182e+02 4.665291256615177184e-01
1.788621047794339392e+00 2.593064516655511852e+03 8.165901405659097918e+02 4.876576998882482528e-01
1.864875494422120639e+00 2.739948142850842487e+03 8.897909905620101654e+02 5.087862741149786761e-01
1.941129941049902108e+00 2.889919440142542953e+03 9.676997656682526667e+02 5.299148483417090993e-01
2.017384387677683577e+00 3.043045267949667505e+03 1.050483112182356081e+03 5.510434225684396337e-01
2.093638834305465046e+00 3.199393822486916633e+03 1.138312666256517787e+03 5.721719967951701680e-01
