# density  energy_density  pressure   sound_speed_squared  [All in nuclear units]
2.720000000000000022e-14 2.529924618736292620e-11 1.061056609100270887e-19 3.766610435412189122e-08
1.269999999999999890e-13 1.181251617980081254e-10 4.870113551826584858e-18 6.497781477172163475e-08
6.929999999999999754e-13 6.445728594625782745e-10 1.018299070687946017e-16 3.033770597342807186e-07
6.295000000000000137e-12 5.855111460395753757e-09 5.487150723824490656e-15 1.763710043904196507e-06
1.581000000000000150e-11 1.470523320212576141e-08 2.904239460150760759e-14 3.559434472327477622e-06
3.971999999999999958e-11 3.694456170323160790e-08 1.439340266754906811e-13 6.772854871245677111e-06
9.975999999999999982e-11 9.278976412613005154e-08 6.812143616221268841e-13 1.246890511177539320e-05
2.505999999999999928e-10 2.330928829758143313e-07 3.107749196951638608e-12 2.212095130576091967e-05
6.294000000000000186e-10 5.854398883216247602e-07 1.363250409771533549e-11 3.761981047239428883e-05
1.581000000000000021e-09 1.470619631082054101e-06 5.726014178088476303e-11 6.095350986710739404e-05
3.971999999999999932e-09 3.694861084648016046e-06 2.210019573374265380e-10 8.628023653304385055e-05
5.000000000000000105e-09 4.651201787816927976e-06 3.071485916280120014e-10 9.387863480799757518e-05
9.975999999999999465e-09 9.280587964640925786e-06 8.385361004129998845e-10 1.356922228656245837e-04
1.989999999999999952e-08 1.851419242998081003e-05 2.287763168863418088e-09 1.782101978513718314e-04
3.972999999999999908e-08 3.696699295748789187e-05 6.061583099087538954e-09 2.308134738384234820e-04
7.925999999999999637e-08 7.375765469301719828e-05 1.575347858094044765e-08 2.960532096713864875e-04
1.580999999999999930e-07 1.471491184379128891e-04 3.910429618672550719e-08 3.402859755131850544e-04
1.991000000000000027e-07 1.853209783927820692e-04 5.252045687899177454e-08 3.626488188833278743e-04
3.155999999999999938e-07 2.938002528823880299e-04 9.730770378831954314e-08 4.630767356912104081e-04
5.000999999999999849e-07 4.656344063839075714e-04 1.837494945860225819e-07 5.430301232045120323e-04
6.295999999999999732e-07 5.862651417037388971e-04 2.503103884558263872e-07 5.605192962670089638e-04
9.666999999999999941e-07 9.003386739730535665e-04 4.324450868778576936e-07 5.993081670211623108e-04
1.531999999999999901e-06 1.427170885631398036e-03 7.780217275717420968e-07 7.125938556504039095e-04
2.506999999999999883e-06 2.336134972129507662e-03 1.471005394641589826e-06 8.121876172121876309e-04
3.974000000000000407e-06 3.704315759716615697e-03 2.695705763844323844e-06 9.780674166779417152e-04
4.830000000000000343e-06 4.502887798316278223e-03 3.503988717694660908e-06 1.046253037768318664e-03
6.080999999999999885e-06 5.670217999231269741e-03 4.731126407333307547e-06 1.056224360839501646e-03
7.930000000000000308e-06 7.396012414119570652e-03 6.599662989063778187e-06 1.109203753630785610e-03
9.982000000000000313e-06 9.311815711689977113e-03 8.879881089227186733e-06 1.271216815433141075e-03
1.256999999999999993e-05 1.172874412604260098e-02 1.207676739913533738e-05 1.374195438212825332e-03
1.521999999999999997e-05 1.420427250933824909e-02 1.547541302213394990e-05 1.371610497379100249e-03
1.991000000000000080e-05 1.858690797761085312e-02 2.160710455847765458e-05 1.426578142835871997e-03
2.506999999999999883e-05 2.341050104039446925e-02 2.908031724375689851e-05 1.672007475975408053e-03
2.790999999999999875e-05 2.606604784714952258e-02 3.357009132255487721e-05 1.709425557744154774e-03
3.806999999999999973e-05 3.556967988784798945e-02 4.986781576435106434e-05 1.720407281314112165e-03
5.063000000000000145e-05 4.732434580343149871e-02 7.073400252905581275e-05 1.829889149838781265e-03
6.592000000000000583e-05 6.164112392498975052e-02 9.765037643900635188e-05 1.930242980462695823e-03
8.433000000000000066e-05 7.888776783401378612e-02 1.317235490470395893e-04 2.021055815200022837e-03
1.062000000000000064e-04 9.938561165478684845e-02 1.740088341640037047e-04 2.104789529260958983e-03
1.321000000000000126e-04 1.236720406455826121e-01 2.260189757651373944e-04 2.178291718403657477e-03
1.623999999999999901e-04 1.520974545104751274e-01 2.888169908545388338e-04 2.240170365918073281e-03
1.689999999999999879e-04 1.582907717069566844e-01 3.027354772999506964e-04 2.254509350360745651e-03
1.758999999999999930e-04 1.647661861691531171e-01 3.173785841705756782e-04 2.268169273277113179e-03
1.830000000000000029e-04 1.714298948183871907e-01 3.325196584577469103e-04 2.276170334580628063e-03
1.901999999999999882e-04 1.781880600978280049e-01 3.479577791899843742e-04 2.292561569242367037e-03
1.977000000000000079e-04 1.852284385240466902e-01 3.641242634600037713e-04 2.299943765467868384e-03
2.054000000000000053e-04 1.924572004474696396e-01 3.808304060475003897e-04 2.322187632288155723e-03
2.079000000000000119e-04 1.948043378760714872e-01 3.864137987380476553e-04 2.435429768083530178e-03
2.081999999999999921e-04 1.950859988578999005e-01 3.870314100985603909e-04 1.950065624557156818e-03
2.090999999999999868e-04 1.959309855029948977e-01 3.881261957135444685e-04 6.411875526909013856e-04
2.159999999999999919e-04 2.024093317906446865e-01 3.940874488768042125e-04 1.199166870571831411e-03
2.231000000000000019e-04 2.090756740932291913e-01 4.013938420547467825e-04 9.928616047829054436e-04
2.311000000000000066e-04 2.165873044433437034e-01 4.085241694843774404e-04 9.056166966301716637e-04
2.401000000000000085e-04 2.250381721984245909e-01 4.159700687886608468e-04 8.565463878902855599e-04
2.500000000000000052e-04 2.343344406330727658e-01 4.237602369176299592e-04 8.194318812157330018e-04
2.642999999999999733e-04 2.477629128650125634e-01 4.345596643180389446e-04 7.890063723638815647e-04
3.052999999999999941e-04 2.862671839140227270e-01 4.644058706720978241e-04 7.612775562167708662e-04
3.533000000000000224e-04 3.313503829113090826e-01 4.987577676308450197e-04 7.626578558207241024e-04
4.075999999999999871e-04 3.823564017794535141e-01 5.381334366106255759e-04 7.813048116943254948e-04
4.679999999999999915e-04 4.390986251953180042e-01 5.832692638200615834e-04 8.096035963157804938e-04
5.341000000000000261e-04 5.012024644415256081e-01 6.346556894078133086e-04 8.452514814113673558e-04
6.059000000000000366e-04 5.686690698184251325e-01 6.930641302632923034e-04 8.862253587289389486e-04
7.661000000000000275e-04 7.192254882508629654e-01 8.328184776562496576e-04 9.702780530519144065e-04
1.262000000000000101e-03 1.185459127778160093e+00 1.338484980802662205e-03 1.198863597978450275e-03
1.894999999999999983e-03 1.780909071169781921e+00 2.123481960401060308e-03 1.437771491635827115e-03
2.673000000000000029e-03 2.513147344746868850e+00 3.261860252001994032e-03 1.671524566936786766e-03
3.605999999999999830e-03 3.391736073717691369e+00 4.828136641022434151e-03 1.893900408978071038e-03
4.709999999999999777e-03 4.431905410739045870e+00 6.903512974832482635e-03 2.096551352830673849e-03
7.496000000000000059e-03 7.058993649504918366e+00 1.289742191321638018e-02 2.466596387205546859e-03
1.119999999999999989e-02 1.055540362104863661e+01 2.212077014004794340e-02 2.809304433764861584e-03
1.600000000000000033e-02 1.509117352747679952e+01 3.559566804390756900e-02 3.132325055719984222e-03
2.206999999999999934e-02 2.083310616724802244e+01 5.457322122755020599e-02 3.477840948757840792e-03
2.947999999999999926e-02 2.785007348564149154e+01 8.049103664263126956e-02 3.909302116317729670e-03
4.268000000000000266e-02 4.036707211535221518e+01 1.353887601042819133e-01 4.862066536253286525e-03
6.219999999999999835e-02 5.891246509830522626e+01 2.419691225623893105e-01 6.630786177272363080e-03
7.316999999999999893e-02 6.935151695866235855e+01 3.161896974764099033e-01 7.588671314871411888e-03
7.595999999999999974e-02 7.200836722020332559e+01 3.371250777904805096e-01 8.170805199905812125e-03
7.685877551020407761e-02 7.286441678461912375e+01 3.442034768366479813e-01 8.366544755337197367e-03
7.775755102040816935e-02 7.372055009857021446e+01 3.514490913561121310e-01 8.559817032946833576e-03
7.865632653061224722e-02 7.457676811551814922e+01 3.588599521727486308e-01 8.750861492664248342e-03
7.955510204081632508e-02 7.543307174579507546e+01 3.664342947328582678e-01 8.939917594418990074e-03
8.045387755102040295e-02 7.628946186037792643e+01 3.741705591762932714e-01 9.127224798140589831e-03
8.135265306122449469e-02 7.714593929449472398e+01 3.820673904125466702e-01 9.313022563758585615e-03
8.225142857142857256e-02 7.800250485107250142e+01 3.901236382014183768e-01 9.497550351202510219e-03
8.315020408163265042e-02 7.885915930403547236e+01 3.983383572379182169e-01 9.681047620401901643e-03
8.404897959183672829e-02 7.971590340146120468e+01 4.067108072410994812e-01 9.863753831286294418e-03
8.494775510204082003e-02 8.057273786860301357e+01 4.152404530465574339e-01 1.004590844378523522e-02
8.584653061224489790e-02 8.142966341078538051e+01 4.239269647023582444e-01 1.022775091782824296e-02
8.674530612244897576e-02 8.228668071617907742e+01 4.327702175681977237e-01 1.040952071334486605e-02
8.764408163265305363e-02 8.314379045846230554e+01 4.417702924176146739e-01 1.059145729026463902e-02
8.854285714285714537e-02 8.400099329937391701e+01 4.509274755431152970e-01 1.077380010851710333e-02
8.944163265306122323e-02 8.485828989116356524e+01 4.602422588640873724e-01 1.095678862803178312e-02
9.034040816326530110e-02 8.571568087894516452e+01 4.697153400374103338e-01 1.114066230873822332e-02
9.123918367346939284e-02 8.657316690295705541e+01 4.793476225706858052e-01 1.132566061056595845e-02
9.213795918367347071e-02 8.743074860073484444e+01 4.891402159380365267e-01 1.151202299344452479e-02
9.303673469387754857e-02 8.828842660920003027e+01 4.990944356984430841e-01 1.169998891730345512e-02
9.393551020408162644e-02 8.914620156666975959e+01 5.092118036166014550e-01 1.188979784207229787e-02
9.483428571428570431e-02 9.000407411479015707e+01 5.194940477863063677e-01 1.208168922768057194e-02
9.573306122448979605e-02 9.086204490039797577e+01 5.299431027563800134e-01 1.227590253405782920e-02
9.663183673469387391e-02 9.172011457731314010e+01 5.405611096591799170e-01 1.247267722113359727e-02
9.753061224489795178e-02 9.257828380806638791e+01 5.513504163417382031e-01 1.267225274883741412e-02
9.842938775510204352e-02 9.343655326556380203e+01 5.623135774995919878e-01 1.287486857709882124e-02
9.932816326530612139e-02 9.429492363469218219e+01 5.734533548133825542e-01 1.308076416584734794e-02
1.002269387755101993e-01 9.515339561386741707e+01 5.847727170883135761e-01 1.329017897501253397e-02
1.011257142857142910e-01 9.601196991652849988e+01 5.962748403965639765e-01 1.350335246452391558e-02
1.020244897959183689e-01 9.687064727258011487e+01 6.079631082227686667e-01 1.372052409431102904e-02
1.029232653061224467e-01 9.772942842978477529e+01 6.198411116126881781e-01 1.394193332430340715e-02
1.038220408163265246e-01 9.858831415510900342e+01 6.319126493251960852e-01 1.416781961443059311e-02
1.047208163265306025e-01 9.944730523602277117e+01 6.441817279877247726e-01 1.439842242462211971e-02
1.056195918367346942e-01 1.003064024817567059e+02 6.566525622553187613e-01 1.463398121480752323e-02
1.065183673469387721e-01 1.011656067245173602e+02 6.693295749734495814e-01 1.487473544491634339e-02
1.074171428571428499e-01 1.020249188206632311e+02 6.822173973447617223e-01 1.512092457487810779e-02
1.083159183673469417e-01 1.028843396518424100e+02 6.953208690999159725e-01 1.537278806462236656e-02
1.092146938775510195e-01 1.037438701260941087e+02 7.086450386727124462e-01 1.563056537407864210e-02
1.101134693877550974e-01 1.046035111789155820e+02 7.221951633796804826e-01 1.589449596317647762e-02
1.110122448979591891e-01 1.054632637742950863e+02 7.359767096043240420e-01 1.616481929184541283e-02
1.119110204081632531e-01 1.063231289057139151e+02 7.499953529862226631e-01 1.644177482001497881e-02
1.128097959183673449e-01 1.071831075971165603e+02 7.642569786151961475e-01 1.672560200761471355e-02
1.137085714285714227e-01 1.080432009038524228e+02 7.787676812307338103e-01 1.701654031457414812e-02
1.146073469387755006e-01 1.089034099135889875e+02 7.935337654269145613e-01 1.731482920082282745e-02
1.155061224489795924e-01 1.097637357471981545e+02 8.085617458630295351e-01 1.762070812629028954e-02
1.164048979591836702e-01 1.106241795596164792e+02 8.238583474801361994e-01 1.793441655090605852e-02
1.173036734693877481e-01 1.114847425406804007e+02 8.394305057237748668e-01 1.825619393459967932e-02
1.182024489795918398e-01 1.123454259159380655e+02 8.552853667730796472e-01 1.858627973730069341e-02
1.191012244897959177e-01 1.132062309474376889e+02 8.714302877765228716e-01 1.892491341893863185e-02
1.199999999999999956e-01 1.140671589344944152e+02 8.878728370945391246e-01 1.927233443944302224e-02
1.216662422592284382e-01 1.156635662472174033e+02 9.191698675501461802e-01 1.993691600008319978e-02
1.233324845184568808e-01 1.172604095638878334e+02 9.515489657513097610e-01 2.061688360516863647e-02
1.249987267776853372e-01 1.188576977842476623e+02 9.850355541487103572e-01 2.131232958731714075e-02
1.266649690369137660e-01 1.204554399109217826e+02 1.019655245798072318e+00 2.202334864660523625e-02
1.283312112961422224e-01 1.220536450478980299e+02 1.055433849389822321e+00 2.275003783428260554e-02
1.299974535553706789e-01 1.236523223991503215e+02 1.092397374277897626e+00 2.349249653320879469e-02
1.316636958145991076e-01 1.252514812673990008e+02 1.130572035503076611e+00 2.425082643509236455e-02
1.333299380738275641e-01 1.268511310529951714e+02 1.169984258806312294e+00 2.502513151460575638e-02
1.349961803330559929e-01 1.284512812529247299e+02 1.210660685627657607e+00 2.581551800044220787e-02
1.366624225922844493e-01 1.300519414599230856e+02 1.252628178086505173e+00 2.662209434338038902e-02
1.383286648515129058e-01 1.316531213616930245e+02 1.295913823938918075e+00 2.744497118141311920e-02
1.399949071107413345e-01 1.332548307402202568e+02 1.340544941507954890e+00 2.828426130199618999e-02
1.416611493699697910e-01 1.348570794711802705e+02 1.386549084582948899e+00 2.914007960146860685e-02
1.433273916291982197e-01 1.364598775234298103e+02 1.433954047283773292e+00 3.001254304169078194e-02
1.449936338884266762e-01 1.380632349585790166e+02 1.482787868886217719e+00 3.090177060394766820e-02
1.466598761476551327e-01 1.396671619306381444e+02 1.533078838604618577e+00 3.180788324015692420e-02
1.483261184068835614e-01 1.412716686857343973e+02 1.584855500327988942e+00 3.273100382142481168e-02
1.499923606661120179e-01 1.428767655618949277e+02 1.638146657305914244e+00 3.367125708398526623e-02
1.516586029253404466e-01 1.444824629888896652e+02 1.692981376780523295e+00 3.462876957255935778e-02
1.533248451845689031e-01 1.460887714881343129e+02 1.749388994560923560e+00 3.560366958116923525e-02
1.549910874437973596e-01 1.476957016726437928e+02 1.807399119536472032e+00 3.659608709143888361e-02
1.566573297030257883e-01 1.493032642470388112e+02 1.867041638125343628e+00 3.760615370841313698e-02
1.583235719622542448e-01 1.509114700075969040e+02 1.928346718654854186e+00 3.863400259392512498e-02
1.599898142214826735e-01 1.525203298423481613e+02 1.991344815670023527e+00 3.967976839754057405e-02
1.616560564807111300e-01 1.541298547312114522e+02 2.056066674166927122e+00 4.074358718510728145e-02
1.633222987399395865e-01 1.557400557461675703e+02 2.122543333747345162e+00 4.182559636493660832e-02
1.649885409991680152e-01 1.573509440514680477e+02 2.190806132691303088e+00 4.292593461164325580e-02
1.666547832583964439e-01 1.589625309038756029e+02 2.260886711944069205e+00 4.404474178766887987e-02
1.683210255176249004e-01 1.605748276529352836e+02 2.332817019014204352e+00 4.518215886251453206e-02
1.699872677768533569e-01 1.621878457412719285e+02 2.406629311779274083e+00 4.633832782970623287e-02
1.716535100360818134e-01 1.638015967049129529e+02 2.482356162195848981e+00 4.751339162151811679e-02
1.733197522953102421e-01 1.654160921736356897e+02 2.560030459910413114e+00 4.870749402147627610e-02
1.749859945545386708e-01 1.670313438713330640e+02 2.639685415767821119e+00 4.992077957466726362e-02
1.766522368137671273e-01 1.686473636164005541e+02 2.721354565213937704e+00 5.115339349587384732e-02
1.783184790729955838e-01 1.702641633221388417e+02 2.805071771589104923e+00 5.240548157556134540e-02
1.799847213322240402e-01 1.718817549971713277e+02 2.890871229309090573e+00 5.367719008373726675e-02
1.816509635914524690e-01 1.735001507458769936e+02 2.978787466930147954e+00 5.496866567170718282e-02
1.833172058506808977e-01 1.751193627688327012e+02 3.068855350094846113e+00 5.628005527174941708e-02
1.849834481099093542e-01 1.767394033632672574e+02 3.161110084355297722e+00 5.761150599473136014e-02
1.866496903691378106e-01 1.783602849235231247e+02 3.255587217870421490e+00 5.896316502569037832e-02
1.883159326283662671e-01 1.799820199415250670e+02 3.352322643973887573e+00 6.033517951740221402e-02
1.899821748875946958e-01 1.816046210072554459e+02 3.451352603609344261e+00 6.172769648196017173e-02
1.916484171468231246e-01 1.832281008092320747e+02 3.552713687629562855e+00 6.314086268038802963e-02
1.933146594060515810e-01 1.848524721349901654e+02 3.656442838956089680e+00 6.457482451031074100e-02
1.949809016652800375e-01 1.864777478715651000e+02 3.762577354596005286e+00 6.602972789170626078e-02
1.966471439245084940e-01 1.881039410059746046e+02 3.871154887512384235e+00 6.750571815076285287e-02
1.983133861837369227e-01 1.897310646257011513e+02 3.982213448345009343e+00 6.900293990186641413e-02
1.999796284429653515e-01 1.913591319191716025e+02 4.095791406977912885e+00 7.052153692774254523e-02
2.016458707021938079e-01 1.929881561762323088e+02 4.211927493950266665e+00 7.206165205777853577e-02
2.791633019123531123e-01 2.711758543901647158e+02 2.043336284609265263e+01 3.331958362695081055e-01
3.566807331225124167e-01 3.565416758434390658e+02 6.088176743300552118e+01 5.943300204812376197e-01
4.341981643326717211e-01 4.523513983730297241e+02 1.056627407310898121e+02 3.578027178330838165e-01
5.117155955428309699e-01 5.547986527987873160e+02 1.377839113281202685e+02 2.725720862668876698e-01
5.892330267529903853e-01 6.617809164532532122e+02 1.662787454104989706e+02 2.606328106256312616e-01
6.667504579631495787e-01 7.725864137673900132e+02 1.962657488463187008e+02 2.803753628433707790e-01
7.442678891733089941e-01 8.871107492434307460e+02 2.306710434881976539e+02 3.197825288296063384e-01
8.217853203834681874e-01 1.005511704316466194e+03 2.709092028418550058e+02 3.591896948158418978e-01
8.993027515936276028e-01 1.127991337195441702e+03 3.173625443072628514e+02 3.985968608020774573e-01
9.768201828037867962e-01 1.254730467806975412e+03 3.695785190121331425e+02 4.249222922228935162e-01
1.054337614013946212e+00 1.385729096905852202e+03 4.230808290854780580e+02 3.927576801240848514e-01
1.131855045224105405e+00 1.520565272728384343e+03 4.738235417288437930e+02 3.605930680252762977e-01
1.209372476434264820e+00 1.658772328750105316e+03 5.213979866315668232e+02 3.284284559264676329e-01
1.286889907644424014e+00 1.799919127538405746e+03 5.654517545424307627e+02 2.962638438276590791e-01
1.364407338854583207e+00 1.943606852427880995e+03 6.056832045374242171e+02 2.640992317288505253e-01
1.441924770064742622e+00 2.089466235937555666e+03 6.418366008925548840e+02 2.319346196300418605e-01
1.519442201274902038e+00 2.237155138176104629e+03 6.736977749976525729e+02 1.997700075312331958e-01
1.596959632485061231e+00 2.386356410424167279e+03 7.010902318328285219e+02 1.676053954324246420e-01
1.674477063695220425e+00 2.536949473142105944e+03 7.329183809534898728e+02 2.545874881471819062e-01
1.751994494905379840e+00 2.689351985265156145e+03 7.810410580905488587e+02 3.758261797890727340e-01
1.829511926115539255e+00 2.844284654390353353e+03 8.487845173910802714e+02 4.970648714309635618e-01
1.907029357325698449e+00 3.002491477263461093e+03 9.371820626106734835e+02 6.183035630728540566e-01
1.984546788535857642e+00 3.164702670609104644e+03 1.047529073596140051e+03 7.395422547147445513e-01
2.062064219746017280e+00 3.331637650060708893e+03 1.178473152727834986e+03 8.269781323019235186e-01
