# density  energy_density  pressure   sound_speed_squared  [All in nuclear units]
2.720000000000000022e-14 2.529924618736292620e-11 1.061056609100270887e-19 3.766610435412189122e-08
1.269999999999999890e-13 1.181251617980081254e-10 4.870113551826584858e-18 6.497781477172163475e-08
6.929999999999999754e-13 6.445728594625782745e-10 1.018299070687946017e-16 3.033770597342807186e-07
6.295000000000000137e-12 5.855111460395753757e-09 5.487150723824490656e-15 1.763710043904196507e-06
1.581000000000000150e-11 1.470523320212576141e-08 2.904239460150760759e-14 3.559434472327477622e-06
3.971999999999999958e-11 3.694456170323160790e-08 1.439340266754906811e-13 6.772854871245677111e-06
9.975999999999999982e-11 9.278976412613005154e-08 6.812143616221268841e-13 1.246890511177539320e-05
2.505999999999999928e-10 2.330928829758143313e-07 3.107749196951638608e-12 2.212095130576091967e-05
6.294000000000000186e-10 5.854398883216247602e-07 1.363250409771533549e-11 3.761981047239428883e-05
1.581000000000000021e-09 1.470619631082054101e-06 5.726014178088476303e-11 6.095350986710739404e-05
3.971999999999999932e-09 3.694861084648016046e-06 2.210019573374265380e-10 8.628023653304385055e-05
5.000000000000000105e-09 4.651201787816927976e-06 3.071485916280120014e-10 9.387863480799757518e-05
9.975999999999999465e-09 9.280587964640925786e-06 8.385361004129998845e-10 1.356922228656245837e-04
1.989999999999999952e-08 1.851419242998081003e-05 2.287763168863418088e-09 1.782101978513718314e-04
3.972999999999999908e-08 3.696699295748789187e-05 6.061583099087538954e-09 2.308134738384234820e-04
7.925999999999999637e-08 7.375765469301719828e-05 1.575347858094044765e-08 2.960532096713864875e-04
1.580999999999999930e-07 1.471491184379128891e-04 3.910429618672550719e-08 3.402859755131850544e-04
1.991000000000000027e-07 1.853209783927820692e-04 5.252045687899177454e-08 3.626488188833278743e-04
3.155999999999999938e-07 2.938002528823880299e-04 9.730770378831954314e-08 4.630767356912104081e-04
5.000999999999999849e-07 4.656344063839075714e-04 1.837494945860225819e-07 5.430301232045120323e-04
6.295999999999999732e-07 5.862651417037388971e-04 2.503103884558263872e-07 5.605192962670089638e-04
9.666999999999999941e-07 9.003386739730535665e-04 4.324450868778576936e-07 5.993081670211623108e-04
1.531999999999999901e-06 1.427170885631398036e-03 7.780217275717420968e-07 7.125938556504039095e-04
2.506999999999999883e-06 2.336134972129507662e-03 1.471005394641589826e-06 8.121876172121876309e-04
3.974000000000000407e-06 3.704315759716615697e-03 2.695705763844323844e-06 9.780674166779417152e-04
4.830000000000000343e-06 4.502887798316278223e-03 3.503988717694660908e-06 1.046253037768318664e-03
6.080999999999999885e-06 5.670217999231269741e-03 4.731126407333307547e-06 1.056224360839501646e-03
7.930000000000000308e-06 7.396012414119570652e-03 6.599662989063778187e-06 1.109203753630785610e-03
9.982000000000000313e-06 9.311815711689977113e-03 8.879881089227186733e-06 1.271216815433141075e-03
1.256999999999999993e-05 1.172874412604260098e-02 1.207676739913533738e-05 1.374195438212825332e-03
1.521999999999999997e-05 1.420427250933824909e-02 1.547541302213394990e-05 1.371610497379100249e-03
1.991000000000000080e-05 1.858690797761085312e-02 2.160710455847765458e-05 1.426578142835871997e-03
2.506999999999999883e-05 2.341050104039446925e-02 2.908031724375689851e-05 1.672007475975408053e-03
2.790999999999999875e-05 2.606604784714952258e-02 3.357009132255487721e-05 1.709425557744154774e-03
3.806999999999999973e-05 3.556967988784798945e-02 4.986781576435106434e-05 1.720407281314112165e-03
5.063000000000000145e-05 4.732434580343149871e-02 7.073400252905581275e-05 1.829889149838781265e-03
6.592000000000000583e-05 6.164112392498975052e-02 9.765037643900635188e-05 1.930242980462695823e-03
8.433000000000000066e-05 7.888776783401378612e-02 1.317235490470395893e-04 2.021055815200022837e-03
1.062000000000000064e-04 9.938561165478684845e-02 1.740088341640037047e-04 2.104789529260958983e-03
1.321000000000000126e-04 1.236720406455826121e-01 2.260189757651373944e-04 2.178291718403657477e-03
1.623999999999999901e-04 1.520974545104751274e-01 2.888169908545388338e-04 2.240170365918073281e-03
1.689999999999999879e-04 1.582907717069566844e-01 3.027354772999506964e-04 2.254509350360745651e-03
1.758999999999999930e-04 1.647661861691531171e-01 3.173785841705756782e-04 2.268169273277113179e-03
1.830000000000000029e-04 1.714298948183871907e-01 3.325196584577469103e-04 2.276170334580628063e-03
1.901999999999999882e-04 1.781880600978280049e-01 3.479577791899843742e-04 2.292561569242367037e-03
1.977000000000000079e-04 1.852284385240466902e-01 3.641242634600037713e-04 2.299943765467868384e-03
2.054000000000000053e-04 1.924572004474696396e-01 3.808304060475003897e-04 2.322187632288155723e-03
2.079000000000000119e-04 1.948043378760714872e-01 3.864137987380476553e-04 2.435429768083530178e-03
2.081999999999999921e-04 1.950859988578999005e-01 3.870314100985603909e-04 1.950065624557156818e-03
2.090999999999999868e-04 1.959309855029948977e-01 3.881261957135444685e-04 6.411875526909013856e-04
2.159999999999999919e-04 2.024093317906446865e-01 3.940874488768042125e-04 1.199166870571831411e-03
2.231000000000000019e-04 2.090756740932291913e-01 4.013938420547467825e-04 9.928616047829054436e-04
2.311000000000000066e-04 2.165873044433437034e-01 4.085241694843774404e-04 9.056166966301716637e-04
2.401000000000000085e-04 2.250381721984245909e-01 4.159700687886608468e-04 8.565463878902855599e-04
2.500000000000000052e-04 2.343344406330727658e-01 4.237602369176299592e-04 8.194318812157330018e-04
2.642999999999999733e-04 2.477629128650125634e-01 4.345596643180389446e-04 7.890063723638815647e-04
3.052999999999999941e-04 2.862671839140227270e-01 4.644058706720978241e-04 7.612775562167708662e-04
3.533000000000000224e-04 3.313503829113090826e-01 4.987577676308450197e-04 7.626578558207241024e-04
4.075999999999999871e-04 3.823564017794535141e-01 5.381334366106255759e-04 7.813048116943254948e-04
4.679999999999999915e-04 4.390986251953180042e-01 5.832692638200615834e-04 8.096035963157804938e-04
5.341000000000000261e-04 5.012024644415256081e-01 6.346556894078133086e-04 8.452514814113673558e-04
6.059000000000000366e-04 5.686690698184251325e-01 6.930641302632923034e-04 8.862253587289389486e-04
7.661000000000000275e-04 7.192254882508629654e-01 8.328184776562496576e-04 9.702780530519144065e-04
1.262000000000000101e-03 1.185459127778160093e+00 1.338484980802662205e-03 1.198863597978450275e-03
1.894999999999999983e-03 1.780909071169781921e+00 2.123481960401060308e-03 1.437771491635827115e-03
2.673000000000000029e-03 2.513147344746868850e+00 3.261860252001994032e-03 1.671524566936786766e-03
3.605999999999999830e-03 3.391736073717691369e+00 4.828136641022434151e-03 1.893900408978071038e-03
4.709999999999999777e-03 4.431905410739045870e+00 6.903512974832482635e-03 2.096551352830673849e-03
7.496000000000000059e-03 7.058993649504918366e+00 1.289742191321638018e-02 2.466596387205546859e-03
1.119999999999999989e-02 1.055540362104863661e+01 2.212077014004794340e-02 2.809304433764861584e-03
1.600000000000000033e-02 1.509117352747679952e+01 3.559566804390756900e-02 3.132325055719984222e-03
2.206999999999999934e-02 2.083310616724802244e+01 5.457322122755020599e-02 3.477840948757840792e-03
2.947999999999999926e-02 2.785007348564149154e+01 8.049103664263126956e-02 3.909302116317729670e-03
4.268000000000000266e-02 4.036707211535221518e+01 1.353887601042819133e-01 4.862066536253286525e-03
6.219999999999999835e-02 5.891246509830522626e+01 2.419691225623893105e-01 6.630786177272363080e-03
7.316999999999999893e-02 6.935151695866235855e+01 3.161896974764099033e-01 7.588671314871411888e-03
7.595999999999999974e-02 7.200836722020332559e+01 3.371250777904805096e-01 8.170805199905812125e-03
7.685877551020407761e-02 7.286441680735781290e+01 3.442073681855505329e-01 8.375635276527571005e-03
7.775755102040816935e-02 7.372055024916225818e+01 3.514671314645668176e-01 8.583775929152090423e-03
7.865632653061224722e-02 7.457676864389347315e+01 3.589071685135157286e-01 8.795045294262766530e-03
7.955510204081632508e-02 7.543307309585705411e+01 3.665301260527982219e-01 9.009261508343000685e-03
8.045387755102040295e-02 7.628946471344066538e+01 3.743384965824972377e-01 9.226242707876201182e-03
8.135265306122449469e-02 7.714594460725452052e+01 3.823346183244927809e-01 9.445807029345764175e-03
8.225142857142857256e-02 7.800251388835204125e+01 3.905206751613962690e-01 9.667772609235085815e-03
8.315020408163265042e-02 7.885917366652898863e+01 3.988986965722927658e-01 9.891957584027570929e-03
8.404897959183672829e-02 7.971592504869440177e+01 4.074705575652852740e-01 1.011818009020661914e-02
8.494775510204082003e-02 8.057276913731121226e+01 4.162379786068508003e-01 1.034625826425563527e-02
8.584653061224489790e-02 8.142970702890143286e+01 4.252025255480247345e-01 1.057601024265801375e-02
8.674530612244897576e-02 8.228673981261374593e+01 4.343656095474418555e-01 1.080725416189715592e-02
8.764408163265305363e-02 8.314386856884920007e+01 4.437284869912671015e-01 1.103980815845647008e-02
8.854285714285714537e-02 8.400109436794299711e+01 4.532922594100614044e-01 1.127349036881935065e-02
8.944163265306122323e-02 8.485841826889820538e+01 4.630578733926321577e-01 1.150811892946919553e-02
9.034040816326530110e-02 8.571584131817003538e+01 4.730261204969284927e-01 1.174351197688940779e-02
9.123918367346939284e-02 8.657336454849749430e+01 4.831976371580431473e-01 1.197948764756339400e-02
9.213795918367347071e-02 8.743098897778021694e+01 4.935729045933933690e-01 1.221586407797454685e-02
9.303673469387754857e-02 8.828871560799778706e+01 5.041522487051588453e-01 1.245245940460626942e-02
9.393551020408162644e-02 8.914654542417048333e+01 5.149358399800556541e-01 1.268909176394196654e-02
9.483428571428570431e-02 9.000447939335816727e+01 5.259236933865367725e-01 1.292557929246503090e-02
9.573306122448979605e-02 9.086251846369691521e+01 5.371156682695098494e-01 1.316174012665887252e-02
9.663183673469387391e-02 9.172066356346991256e+01 5.485114682426686095e-01 1.339739240300688583e-02
9.753061224489795178e-02 9.257891560021280952e+01 5.601106410785416934e-01 1.363235425799247218e-02
9.842938775510204352e-02 9.343727545985048266e+01 5.719125785963613540e-01 1.386644382809903465e-02
9.932816326530612139e-02 9.429574400586417937e+01 5.839165165478621411e-01 1.409947924980997289e-02
1.002269387755101993e-01 9.515432207848832036e+01 5.961215345011243727e-01 1.433127865960868476e-02
1.011257142857142910e-01 9.601301049393471487e+01 6.085265557225763011e-01 1.456166019397858030e-02
1.020244897959183689e-01 9.687181004364309445e+01 6.211303470572746566e-01 1.479044198940304353e-02
1.029232653061224467e-01 9.773072149355765248e+01 6.339315188075901331e-01 1.501744218236548620e-02
1.038220408163265246e-01 9.858974558342701755e+01 6.469285246104186093e-01 1.524247890934930794e-02
1.047208163265306025e-01 9.944888302612768882e+01 6.601196613130497770e-01 1.546537030683791183e-02
1.056195918367346942e-01 1.003081345070103225e+02 6.735030688478246264e-01 1.568593451131469405e-02
1.065183673469387721e-01 1.011675006832658141e+02 6.870767301057131293e-01 1.590398965926306113e-02
1.074171428571428499e-01 1.020269821833128816e+02 7.008384708089528958e-01 1.611935388716640230e-02
1.083159183673469417e-01 1.028865796062046911e+02 7.147859593828829183e-01 1.633184533150813106e-02
1.092146938775510195e-01 1.037462935210537296e+02 7.289167068271151795e-01 1.654128212877163662e-02
1.101134693877550974e-01 1.046061244664755208e+02 7.432280665861890068e-01 1.674748241544032901e-02
1.110122448979591891e-01 1.054660729500480301e+02 7.577172344198503939e-01 1.695026432799760785e-02
1.119110204081632531e-01 1.063261394477890605e+02 7.723812482731028384e-01 1.714944600292687277e-02
1.128097959183673449e-01 1.071863244036481433e+02 7.872169881461847929e-01 1.734484557671151644e-02
1.137085714285714227e-01 1.080466282290145159e+02 8.022211759646131757e-01 1.753628118583495238e-02
1.146073469387755006e-01 1.089070513022387132e+02 8.173903754494576956e-01 1.772357096678057325e-02
1.155061224489795924e-01 1.097675939681690949e+02 8.327209919879907662e-01 1.790653305603178216e-02
1.164048979591836702e-01 1.106282565377011338e+02 8.482092725048717696e-01 1.808498559007197526e-02
1.173036734693877481e-01 1.114890392873400060e+02 8.638513053340252101e-01 1.825874670538456257e-02
1.182024489795918398e-01 1.123499424587750042e+02 8.796430200913663011e-01 1.842763453845294025e-02
1.191012244897959177e-01 1.132109662584670815e+02 8.955801875485366326e-01 1.859146722576050445e-02
1.199999999999999956e-01 1.140721108572466562e+02 9.116584195078125674e-01 1.875006290379065826e-02
1.227756974490234465e-01 1.167323583680921075e+02 9.621662184133251694e-01 1.922211944387464816e-02
1.255513948980468975e-01 1.193937625684632735e+02 1.013986836942184722e+00 1.972011525240325788e-02
1.283270923470703484e-01 1.220563276886974080e+02 1.067191244172541298e+00 2.024457412335367926e-02
1.311027897960937993e-01 1.247200593268441224e+02 1.121851840363860653e+00 2.079595236858724355e-02
1.338784872451172225e-01 1.273849643902328950e+02 1.178042281371162403e+00 2.137463839170288676e-02
1.366541846941406735e-01 1.300510510382318330e+02 1.235837301663736953e+00 2.198095217858761150e-02
1.394298821431641244e-01 1.327183286260472812e+02 1.295312535709194357e+00 2.261514470924548548e-02
1.422055795921875754e-01 1.353868076494243837e+02 1.356544337491155661e+00 2.327739729501269311e-02
1.449812770412110263e-01 1.380564996901238715e+02 1.419609597935324929e+00 2.396782084485443373e-02
1.477569744902344773e-01 1.407274173620562863e+02 1.484585560024297202e+00 2.468645506409089529e-02
1.505326719392579282e-01 1.433995742579689647e+02 1.551549631386369255e+00 2.543326758859934880e-02
1.533083693882813514e-01 1.460729848965836482e+02 1.620579194147966362e+00 2.620815305728795702e-02
1.560840668373048024e-01 1.487476646700949914e+02 1.691751411843193109e+00 2.701093212542506061e-02
1.588597642863282533e-01 1.514236297919422043e+02 1.765143033177552168e+00 2.784135042123384030e-02
1.616354617353517042e-01 1.541008972447733072e+02 1.840830192446193170e+00 2.869907744802502325e-02
1.644111591843751552e-01 1.567794847285271089e+02 1.918888206410179986e+00 2.958370543403504582e-02
1.671868566333986061e-01 1.594594106085609155e+02 1.999391367437370004e+00 3.049474813206544746e-02
1.699625540824220571e-01 1.621406938637569226e+02 2.082412732717622728e+00 3.143163957097879629e-02
1.727382515314455080e-01 1.648233540345426889e+02 2.168023909365317969e+00 3.239373276109928923e-02
1.755139489804689590e-01 1.675074111707659483e+02 2.256294835225653106e+00 3.338029835558976172e-02
1.782896464294924099e-01 1.701928857793653833e+02 2.347293555205019366e+00 3.439052326993700254e-02
1.810653438785158331e-01 1.728797987717821627e+02 2.441085992950017935e+00 3.542350926176960485e-02
1.838410413275392841e-01 1.755681714110598080e+02 2.537735717704507454e+00 3.647827147336590858e-02
1.866167387765627350e-01 1.782580252585813696e+02 2.637303706179555451e+00 3.755373693937960611e-02
1.893924362255861860e-01 1.809493821203957111e+02 2.739848099277508719e+00 3.864874306252674002e-02
1.921681336746096369e-01 1.836422639930868002e+02 2.845423953518635418e+00 3.976203606023853698e-02
1.949438311236330601e-01 1.863366930091413280e+02 2.954082987027184082e+00 4.089226938559631375e-02
1.977195285726565110e-01 1.890326913817704622e+02 3.065873319943366315e+00 4.203800212623353544e-02
2.004952260216799620e-01 1.917302813491479299e+02 3.180839209138874413e+00 4.319769738531601538e-02
2.032709234707034129e-01 1.944294851180223986e+02 3.299020777126377535e+00 4.436972064920759878e-02
2.060466209197268639e-01 1.971303248066676872e+02 3.420453735068091916e+00 4.555233814699361644e-02
2.088223183687503148e-01 1.998328223871359057e+02 3.545169099805368429e+00 4.674371520768190458e-02
2.115980158177737658e-01 2.025369996267804140e+02 3.673192904850453910e+00 4.794191462163418377e-02
2.143737132667972167e-01 2.052428780290142072e+02 3.804545905303510445e+00 4.914489501361141155e-02
2.171494107158206677e-01 2.079504787732782916e+02 3.939243276682899975e+00 5.035050923574870690e-02
2.199251081648441186e-01 2.106598226541896395e+02 4.077294307685029651e+00 5.155650278982762402e-02
2.227008056138675696e-01 2.133709300198457868e+02 4.218702086922077932e+00 5.276051228938638538e-02
2.254765030628909928e-01 2.160838207092632786e+02 4.363463183722083194e+00 5.396006397351990613e-02
2.282522005119144437e-01 2.187985139889314610e+02 4.511567323116662642e+00 5.515257228568500036e-02
2.310278979609378947e-01 2.215150284884657594e+02 4.662997055187424245e+00 5.633533853244526712e-02
2.338035954099613456e-01 2.242333821353451526e+02 4.817727418993631439e+00 5.750554963889166482e-02
2.365792928589847965e-01 2.269535920887315683e+02 4.975725601361242312e+00 5.866027701946088108e-02
2.393549903080082197e-01 2.296756746723594063e+02 5.136950590877834344e+00 5.979647558506728106e-02
2.421306877570316707e-01 2.323996453065020091e+02 5.301352827509722587e+00 6.091098290987489311e-02
2.449063852060551216e-01 2.351255184390153374e+02 5.468873848337437948e+00 6.200051858368162833e-02
2.476820826550785726e-01 2.378533074754753613e+02 5.639445929994518103e+00 6.306168377878254572e-02
2.504577801041020235e-01 2.405830247084215614e+02 5.812991728492826304e+00 6.409096106333367349e-02
2.532334775531254745e-01 2.433146812457356134e+02 5.989423917226394778e+00 6.508471449667198316e-02
2.560091750021489254e-01 2.460482869381856688e+02 6.168644824065731669e+00 6.603919004576187801e-02
3.324171510225132353e-01 3.226196745918733768e+02 1.641947455316952187e+01 1.992874051171225624e-01
4.088251270428775452e-01 4.026772715425405522e+02 3.787481416494428288e+01 3.325356201884832608e-01
4.852331030632418551e-01 4.878037179193261181e+02 7.207387099917204409e+01 4.652562896624520272e-01
5.616410790836061651e-01 5.792382148424275101e+02 1.174767513445266616e+02 5.252769448065016666e-01
6.380490551039704750e-01 6.774473558473730463e+02 1.721450008802391949e+02 5.852975999505511950e-01
7.144570311243347849e-01 7.827875643935998369e+02 2.371129831066972145e+02 6.453182550946008345e-01
7.908650071446990948e-01 8.956625995243077796e+02 3.140585758882443201e+02 7.144716868419604960e-01
8.672729831650634047e-01 1.016653119330322625e+03 4.113222232115638235e+02 8.824924616622478180e-01
9.436809591854277146e-01 1.147000638061500013e+03 5.006242886301864701e+02 5.065833548736272673e-01
1.020088935205792025e+00 1.283191455884763855e+03 5.737803414979771333e+02 5.660332770973728334e-01
1.096496911226156445e+00 1.425275577821175375e+03 6.585590367177704820e+02 6.254831993211183994e-01
1.172904887246520644e+00 1.573684821258909324e+03 7.559454287514785165e+02 6.849331215448638543e-01
1.249312863266884843e+00 1.728861477954497559e+03 8.670092337546532235e+02 7.443830437686093093e-01
1.325720839287249264e+00 1.891261721480417691e+03 9.929099638726085004e+02 8.038329659923548753e-01
1.402128815307613685e+00 2.061358539909509091e+03 1.134902681622896580e+03 8.632828882161005524e-01
1.478536791327977884e+00 2.239648490509906878e+03 1.296482132120370352e+03 9.455708040344529275e-01
1.554944767348342083e+00 2.426822643793293537e+03 1.463263465242101802e+03 8.410429819783691308e-01
1.631352743368706504e+00 2.621865874533833448e+03 1.616756134551674904e+03 7.365151599222850010e-01
1.707760719389070925e+00 2.823727036777288504e+03 1.754593121895086824e+03 6.319873378662009822e-01
1.784168695409435124e+00 3.031350898016299652e+03 1.874732835199620467e+03 5.274595158101171855e-01
1.860576671429799323e+00 3.243692858410994177e+03 1.975468348963692279e+03 4.229316937540333887e-01
1.936984647450163743e+00 3.459849221361344007e+03 2.064544775839832710e+03 4.015420227998888203e-01
2.013392623470528164e+00 3.679519349244499608e+03 2.155814006598004198e+03 4.291459187499470640e-01
2.089800599490892363e+00 3.902795196019946161e+03 2.254746179257425865e+03 4.567498147000052522e-01
