# density  energy_density  pressure   sound_speed_squared  [All in nuclear units]
2.720000000000000022e-14 2.529924618736292620e-11 1.061056609100270887e-19 3.766610435412189122e-08
1.269999999999999890e-13 1.181251617980081254e-10 4.870113551826584858e-18 6.497781477172163475e-08
6.929999999999999754e-13 6.445728594625782745e-10 1.018299070687946017e-16 3.033770597342807186e-07
6.295000000000000137e-12 5.855111460395753757e-09 5.487150723824490656e-15 1.763710043904196507e-06
1.581000000000000150e-11 1.470523320212576141e-08 2.904239460150760759e-14 3.559434472327477622e-06
3.971999999999999958e-11 3.694456170323160790e-08 1.439340266754906811e-13 6.772854871245677111e-06
9.975999999999999982e-11 9.278976412613005154e-08 6.812143616221268841e-13 1.246890511177539320e-05
2.505999999999999928e-10 2.330928829758143313e-07 3.107749196951638608e-12 2.212095130576091967e-05
6.294000000000000186e-10 5.854398883216247602e-07 1.363250409771533549e-11 3.761981047239428883e-05
1.581000000000000021e-09 1.470619631082054101e-06 5.726014178088476303e-11 6.095350986710739404e-05
3.971999999999999932e-09 3.694861084648016046e-06 2.210019573374265380e-10 8.628023653304385055e-05
5.000000000000000105e-09 4.651201787816927976e-06 3.071485916280120014e-10 9.387863480799757518e-05
9.975999999999999465e-09 9.280587964640925786e-06 8.385361004129998845e-10 1.356922228656245837e-04
1.989999999999999952e-08 1.851419242998081003e-05 2.287763168863418088e-09 1.782101978513718314e-04
3.972999999999999908e-08 3.696699295748789187e-05 6.061583099087538954e-09 2.308134738384234820e-04
7.925999999999999637e-08 7.375765469301719828e-05 1.575347858094044765e-08 2.960532096713864875e-04
1.580999999999999930e-07 1.471491184379128891e-04 3.910429618672550719e-08 3.402859755131850544e-04
1.991000000000000027e-07 1.853209783927820692e-04 5.252045687899177454e-08 3.626488188833278743e-04
3.155999999999999938e-07 2.938002528823880299e-04 9.730770378831954314e-08 4.630767356912104081e-04
5.000999999999999849e-07 4.656344063839075714e-04 1.837494945860225819e-07 5.430301232045120323e-04
6.295999999999999732e-07 5.862651417037388971e-04 2.503103884558263872e-07 5.605192962670089638e-04
9.666999999999999941e-07 9.003386739730535665e-04 4.324450868778576936e-07 5.993081670211623108e-04
1.531999999999999901e-06 1.427170885631398036e-03 7.780217275717420968e-07 7.125938556504039095e-04
2.506999999999999883e-06 2.336134972129507662e-03 1.471005394641589826e-06 8.121876172121876309e-04
3.974000000000000407e-06 3.704315759716615697e-03 2.695705763844323844e-06 9.780674166779417152e-04
4.830000000000000343e-06 4.502887798316278223e-03 3.503988717694660908e-06 1.046253037768318664e-03
6.080999999999999885e-06 5.670217999231269741e-03 4.731126407333307547e-06 1.056224360839501646e-03
7.930000000000000308e-06 7.396012414119570652e-03 6.599662989063778187e-06 1.109203753630785610e-03
9.982000000000000313e-06 9.311815711689977113e-03 8.879881089227186733e-06 1.271216815433141075e-03
1.256999999999999993e-05 1.172874412604260098e-02 1.207676739913533738e-05 1.374195438212825332e-03
1.521999999999999997e-05 1.420427250933824909e-02 1.547541302213394990e-05 1.371610497379100249e-03
1.991000000000000080e-05 1.858690797761085312e-02 2.160710455847765458e-05 1.426578142835871997e-03
2.506999999999999883e-05 2.341050104039446925e-02 2.908031724375689851e-05 1.672007475975408053e-03
2.790999999999999875e-05 2.606604784714952258e-02 3.357009132255487721e-05 1.709425557744154774e-03
3.806999999999999973e-05 3.556967988784798945e-02 4.986781576435106434e-05 1.720407281314112165e-03
5.063000000000000145e-05 4.732434580343149871e-02 7.073400252905581275e-05 1.829889149838781265e-03
6.592000000000000583e-05 6.164112392498975052e-02 9.765037643900635188e-05 1.930242980462695823e-03
8.433000000000000066e-05 7.888776783401378612e-02 1.317235490470395893e-04 2.021055815200022837e-03
1.062000000000000064e-04 9.938561165478684845e-02 1.740088341640037047e-04 2.104789529260958983e-03
1.321000000000000126e-04 1.236720406455826121e-01 2.260189757651373944e-04 2.178291718403657477e-03
1.623999999999999901e-04 1.520974545104751274e-01 2.888169908545388338e-04 2.240170365918073281e-03
1.689999999999999879e-04 1.582907717069566844e-01 3.027354772999506964e-04 2.254509350360745651e-03
1.758999999999999930e-04 1.647661861691531171e-01 3.173785841705756782e-04 2.268169273277113179e-03
1.830000000000000029e-04 1.714298948183871907e-01 3.325196584577469103e-04 2.276170334580628063e-03
1.901999999999999882e-04 1.781880600978280049e-01 3.479577791899843742e-04 2.292561569242367037e-03
1.977000000000000079e-04 1.852284385240466902e-01 3.641242634600037713e-04 2.299943765467868384e-03
2.054000000000000053e-04 1.924572004474696396e-01 3.808304060475003897e-04 2.322187632288155723e-03
2.079000000000000119e-04 1.948043378760714872e-01 3.864137987380476553e-04 2.435429768083530178e-03
2.081999999999999921e-04 1.950859988578999005e-01 3.870314100985603909e-04 1.950065624557156818e-03
2.090999999999999868e-04 1.959309855029948977e-01 3.881261957135444685e-04 6.411875526909013856e-04
2.159999999999999919e-04 2.024093317906446865e-01 3.940874488768042125e-04 1.199166870571831411e-03
2.231000000000000019e-04 2.090756740932291913e-01 4.013938420547467825e-04 9.928616047829054436e-04
2.311000000000000066e-04 2.165873044433437034e-01 4.085241694843774404e-04 9.056166966301716637e-04
2.401000000000000085e-04 2.250381721984245909e-01 4.159700687886608468e-04 8.565463878902855599e-04
2.500000000000000052e-04 2.343344406330727658e-01 4.237602369176299592e-04 8.194318812157330018e-04
2.642999999999999733e-04 2.477629128650125634e-01 4.345596643180389446e-04 7.890063723638815647e-04
3.052999999999999941e-04 2.862671839140227270e-01 4.644058706720978241e-04 7.612775562167708662e-04
3.533000000000000224e-04 3.313503829113090826e-01 4.987577676308450197e-04 7.626578558207241024e-04
4.075999999999999871e-04 3.823564017794535141e-01 5.381334366106255759e-04 7.813048116943254948e-04
4.679999999999999915e-04 4.390986251953180042e-01 5.832692638200615834e-04 8.096035963157804938e-04
5.341000000000000261e-04 5.012024644415256081e-01 6.346556894078133086e-04 8.452514814113673558e-04
6.059000000000000366e-04 5.686690698184251325e-01 6.930641302632923034e-04 8.862253587289389486e-04
7.661000000000000275e-04 7.192254882508629654e-01 8.328184776562496576e-04 9.702780530519144065e-04
1.262000000000000101e-03 1.185459127778160093e+00 1.338484980802662205e-03 1.198863597978450275e-03
1.894999999999999983e-03 1.780909071169781921e+00 2.123481960401060308e-03 1.437771491635827115e-03
2.673000000000000029e-03 2.513147344746868850e+00 3.261860252001994032e-03 1.671524566936786766e-03
3.605999999999999830e-03 3.391736073717691369e+00 4.828136641022434151e-03 1.893900408978071038e-03
4.709999999999999777e-03 4.431905410739045870e+00 6.903512974832482635e-03 2.096551352830673849e-03
7.496000000000000059e-03 7.058993649504918366e+00 1.289742191321638018e-02 2.466596387205546859e-03
1.119999999999999989e-02 1.055540362104863661e+01 2.212077014004794340e-02 2.809304433764861584e-03
1.600000000000000033e-02 1.509117352747679952e+01 3.559566804390756900e-02 3.132325055719984222e-03
2.206999999999999934e-02 2.083310616724802244e+01 5.457322122755020599e-02 3.477840948757840792e-03
2.947999999999999926e-02 2.785007348564149154e+01 8.049103664263126956e-02 3.909302116317729670e-03
4.268000000000000266e-02 4.036707211535221518e+01 1.353887601042819133e-01 4.862066536253286525e-03
6.219999999999999835e-02 5.891246509830522626e+01 2.419691225623893105e-01 6.630786177272363080e-03
7.316999999999999893e-02 6.935151695866235855e+01 3.161896974764099033e-01 7.588671314871411888e-03
7.595999999999999974e-02 7.200836722020332559e+01 3.371250777904805096e-01 8.170805199905812125e-03
7.685877551020407761e-02 7.286441682989696744e+01 3.442112254270977001e-01 8.384646119082699370e-03
7.775755102040816935e-02 7.372055039905121987e+01 3.514851205252801924e-01 8.607774921110589172e-03
7.865632653061224722e-02 7.457676917263951566e+01 3.589546271135820033e-01 8.839874000893248318e-03
7.955510204081632508e-02 7.543307445552026991e+01 3.666273409737251243e-01 9.080625753334455735e-03
8.045387755102040295e-02 7.628946760737613886e+01 3.745105896094064746e-01 9.329712573337985149e-03
8.135265306122449469e-02 7.714595003787913186e+01 3.826114322117846189e-01 9.586816855807606813e-03
8.225142857142857256e-02 7.800252320206880086e+01 3.909366596209001843e-01 9.851620995647090984e-03
8.315020408163265042e-02 7.885918859593228092e+01 3.994927942823630063e-01 1.012380738776021659e-02
8.404897959183672829e-02 7.971594775217489826e+01 4.082860901987052094e-01 1.040305842705075735e-02
8.494775510204082003e-02 8.057280223617098613e+01 4.173225328748721430e-01 1.068905650842248527e-02
8.584653061224489790e-02 8.142975364208567157e+01 4.266078392573789957e-01 1.098148402677916538e-02
8.674530612244897576e-02 8.228680358915815418e+01 4.361474576667240255e-01 1.128002337702458356e-02
8.764408163265305363e-02 8.314395371813868962e+01 4.459465677226973068e-01 1.158435695406250833e-02
8.854285714285714537e-02 8.400120568787065167e+01 4.560100802622792382e-01 1.189416715279671515e-02
8.944163265306122323e-02 8.485856117201026905e+01 4.663426372498659100e-01 1.220913636813097253e-02
9.034040816326530110e-02 8.571602185587818212e+01 4.769486116796065600e-01 1.252894699496905420e-02
9.123918367346939284e-02 8.657358943343420776e+01 4.878321074696740367e-01 1.285328142821473389e-02
9.213795918367347071e-02 8.743126560437059425e+01 4.989969593483318810e-01 1.318182206277179053e-02
9.303673469387754857e-02 8.828905207131828092e+01 5.104467327316978276e-01 1.351425129354399089e-02
9.393551020408162644e-02 8.914695053715865924e+01 5.221847235931328379e-01 1.385025151543511218e-02
9.483428571428570431e-02 9.000496270243787933e+01 5.342139583242220269e-01 1.418950512334892292e-02
9.573306122448979605e-02 9.086309026287756296e+01 5.465371935873407638e-01 1.453169451218920896e-02
9.663183673469387391e-02 9.172133490697724767e+01 5.591569161598266557e-01 1.487650207685972670e-02
9.753061224489795178e-02 9.257969831370500913e+01 5.720753427698085369e-01 1.522361021226425332e-02
9.842938775510204352e-02 9.343818215027141605e+01 5.852944199237624101e-01 1.557270131330657989e-02
9.932816326530612139e-02 9.429678806998323637e+01 5.988158237258931482e-01 1.592345777489045239e-02
1.002269387755101993e-01 9.515551771017334204e+01 6.126409596894616394e-01 1.627556199191966535e-02
1.011257142857142910e-01 9.601437269020259180e+01 6.267709625401950424e-01 1.662869635929798556e-02
1.020244897959183689e-01 9.687335460953180188e+01 6.412066960119403580e-01 1.698254327192918328e-02
1.029232653061224467e-01 9.773246504585883088e+01 6.559487526347427266e-01 1.733678512471702876e-02
1.038220408163265246e-01 9.859170555331991181e+01 6.709974535155398545e-01 1.769110431256529919e-02
1.047208163265306025e-01 9.945107766075062727e+01 6.863528481116887292e-01 1.804518323037777525e-02
1.056195918367346942e-01 1.003105828700045237e+02 7.020147139975526640e-01 1.839870427305822717e-02
1.065183673469387721e-01 1.011702226543276169e+02 7.179825566243911439e-01 1.875134983551041828e-02
1.074171428571428499e-01 1.020299984567852505e+02 7.342556090738142638e-01 1.910280231263813272e-02
1.083159183673469417e-01 1.028899116887394882e+02 7.508328318050692118e-01 1.945274409934513726e-02
1.092146938775510195e-01 1.037499637283748086e+02 7.677129123964454571e-01 1.980085759053520911e-02
1.101134693877550974e-01 1.046101559192709942e+02 7.848942652810984022e-01 2.014682518111211851e-02
1.110122448979591891e-01 1.054704895690190796e+02 8.023750314775957015e-01 2.049032926597964266e-02
1.119110204081632531e-01 1.063309659478814098e+02 8.201530783155078774e-01 2.083105224004155182e-02
1.128097959183673449e-01 1.071915862874911056e+02 8.382259991563790757e-01 2.116867649820162317e-02
1.137085714285714227e-01 1.080523517795920441e+02 8.565911131104075871e-01 2.150288443536362004e-02
1.146073469387755006e-01 1.089132635748153035e+02 8.752454647492003970e-01 2.183335844643133003e-02
1.155061224489795924e-01 1.097743227814925291e+02 8.941858238149507088e-01 2.215978092630852339e-02
1.164048979591836702e-01 1.106355304645032902e+02 9.134086849264123620e-01 2.248183426989895997e-02
1.173036734693877481e-01 1.114968876441567289e+02 9.329102672820500652e-01 2.279920087210642390e-02
1.182024489795918398e-01 1.123583952951038754e+02 9.526865143607462505e-01 2.311156312783469585e-02
1.191012244897959177e-01 1.132200543452819090e+02 9.727330936204606759e-01 2.341860343198752872e-02
1.199999999999999956e-01 1.140818656748873963e+02 9.930453961952458997e-01 2.372000417946871706e-02
1.232862969312790574e-01 1.172343220573910116e+02 1.069506960111245020e+00 2.478890567321257940e-02
1.265725938625581193e-01 1.203888620585690035e+02 1.149394266875851889e+00 2.585990295791950472e-02
1.298588907938371950e-01 1.235455206425951076e+02 1.232715756874153357e+00 2.693074339517868843e-02
1.331451877251162708e-01 1.267043311290082528e+02 1.319472836699691509e+00 2.799917979760833953e-02
1.364314846563953465e-01 1.298653251407294533e+02 1.409659868438828623e+00 2.906297045184124198e-02
1.397177815876743945e-01 1.330285325568192434e+02 1.503264157969879111e+00 3.011987895719864250e-02
1.430040785189534702e-01 1.361939814693887456e+02 1.600265941790366631e+00 3.116767388208165415e-02
1.462903754502325460e-01 1.393616981441473399e+02 1.700638371888656630e+00 3.220412823933074820e-02
1.495766723815116217e-01 1.425317069841289026e+02 1.804347498176512854e+00 3.322701878110114609e-02
1.528629693127906697e-01 1.457040304961887500e+02 1.911352247997039733e+00 3.423412511316625828e-02
1.561492662440697454e-01 1.488786892599050589e+02 2.021604402218307062e+00 3.522322862796820053e-02
1.594355631753487934e-01 1.520557018985538491e+02 2.135048567416808485e+00 3.619211125518169425e-02
1.627218601066278691e-01 1.552350850518596985e+02 2.251622143647031393e+00 3.713855402803013100e-02
1.660081570379069449e-01 1.584168533502458729e+02 2.371255287283794200e+00 3.806033546308308646e-02
1.692944539691860206e-01 1.616010193903352388e+02 2.493870868412892072e+00 3.895522975076792099e-02
1.725807509004650964e-01 1.647875937114685883e+02 2.619384422232896359e+00 3.982100475333621298e-02
1.758670478317441443e-01 1.679765847730223527e+02 2.747704093916869095e+00 4.065541980653331749e-02
1.791533447630232201e-01 1.711679989323269808e+02 2.878730576367222849e+00 4.145622332072576577e-02
1.824396416943022958e-01 1.743618404229919747e+02 3.012357040280045251e+00 4.222115017673460508e-02
1.857259386255813438e-01 1.775581113334582994e+02 3.148469055916973680e+00 4.294791891111014032e-02
1.890122355568604195e-01 1.807568115856059876e+02 3.286944505963051100e+00 4.363422868505161673e-02
1.922985324881394953e-01 1.839579389132512404e+02 3.427653488828028561e+00 4.427775603062943793e-02
1.955848294194185710e-01 1.871614888403726980e+02 3.570458211726262210e+00 4.487615136739966232e-02
1.988711263506976190e-01 1.903674546589133172e+02 3.715212872846628045e+00 4.542703528191271989e-02
2.021574232819766948e-01 1.935758274060052884e+02 3.861763531898827484e+00 4.592799456200546276e-02
2.054437202132557427e-01 1.967865958404722164e+02 4.009947968295962006e+00 4.637657797712908120e-02
2.087300171445348185e-01 1.999997464184581872e+02 4.159595526205446703e+00 4.677029179530194092e-02
2.120163140758138942e-01 2.032152632680439694e+02 4.310526945670995147e+00 4.710659502658451347e-02
2.153026110070929700e-01 2.064331281627042927e+02 4.462554178977804042e+00 4.738289438225695704e-02
2.185889079383720457e-01 2.096533204934607966e+02 4.615480191400915366e+00 4.759653893813036579e-02
2.218752048696511214e-01 2.128758172395910435e+02 4.769098745443265841e+00 4.774481448964937313e-02
2.251615018009301694e-01 2.161005929377468817e+02 4.923194167635051244e+00 4.782493758563960418e-02
2.284477987322092174e-01 2.193276196493349914e+02 5.077541096929789610e+00 4.783404922672360865e-02
2.317340956634882931e-01 2.225568669260160277e+02 5.231904213694915207e+00 4.776920821357454744e-02
2.350203925947673689e-01 2.257883017731698487e+02 5.386037948255942176e+00 4.762738412929806014e-02
2.383066895260464446e-01 2.290218886111771894e+02 5.539686167913304260e+00 4.740544993933558382e-02
2.415929864573255204e-01 2.322575892343625981e+02 5.692581841309941382e+00 4.710017419136993538e-02
2.448792833886045961e-01 2.354953627674422307e+02 5.844446678985851129e+00 4.670821279678956384e-02
2.481655803198836441e-01 2.387351656193143583e+02 5.994990748913194167e+00 4.622610037434233404e-02
2.514518772511626921e-01 2.419769514340321450e+02 6.143912065762493491e+00 4.565024113568813546e-02
2.547381741824417678e-01 2.452206710387853548e+02 6.290896152607159841e+00 4.497689929165400724e-02
2.580244711137208435e-01 2.484662723887251161e+02 6.435615573730493644e+00 4.420218895711664625e-02
2.613107680449999193e-01 2.517137005084502732e+02 6.577729437156775383e+00 4.332206353160522605e-02
2.645970649762789950e-01 2.549628974299810693e+02 6.716882865486585530e+00 4.233230453194429532e-02
2.678833619075580152e-01 2.582138021270272361e+02 6.852706433576748246e+00 4.122850985257055928e-02
2.711696588388371465e-01 2.614663504453706651e+02 6.984815571567971837e+00 4.000608142858223804e-02
2.744559557701161667e-01 2.647204750291589903e+02 7.112809931729106694e+00 3.866021227614809680e-02
2.777422527013952425e-01 2.679761052429194024e+02 7.236272717557306500e+00 3.718587288465331070e-02
2.810285496326743182e-01 2.712331670890836222e+02 7.354769973548855866e+00 3.557779693493784423e-02
3.569259261707830033e-01 3.477383704265380402e+02 1.897196891940094687e+01 2.636333290660756168e-01
4.328233027088916884e-01 4.284064400088915932e+02 4.986915106411254328e+01 4.916888611972134449e-01
5.087206792470003736e-01 5.161673006956890504e+02 1.037722686256436191e+02 7.197443933283511619e-01
5.846180557851090587e-01 6.136310885077157309e+02 1.766188323934663345e+02 7.712362245111312742e-01
6.605154323232177438e-01 7.210100580293430994e+02 2.450907355323756178e+02 5.208502528505509765e-01
7.364128088613264289e-01 8.351456704340882879e+02 2.992501961170901268e+02 4.319275035888363590e-01
8.123101853994351140e-01 9.546652106416744346e+02 3.523331453508118329e+02 4.558466829739182269e-01
8.882075619375437991e-01 1.079387874303480430e+03 4.107107550045118387e+02 4.797658623590000948e-01
9.641049384756524843e-01 1.209332010526779413e+03 4.746409804568793334e+02 5.036850417440820182e-01
1.040002315013761169e+00 1.344533842635989004e+03 5.443923304440905895e+02 5.276042211291638306e-01
1.115899691551869743e+00 1.485044311918692983e+03 6.202438682546477366e+02 5.515234005142457541e-01
1.191797068089978540e+00 1.630899874957978682e+03 7.006248426481826073e+02 5.508478151906803788e-01
1.267694444628087336e+00 1.781959705669084087e+03 7.834337959266023290e+02 5.457911064283427205e-01
1.343591821166195910e+00 1.938038522766992628e+03 8.682068414682612456e+02 5.407343976660050622e-01
1.419489197704304706e+00 2.098959482551487781e+03 9.547978923735174703e+02 5.356776889036675149e-01
1.495386574242413280e+00 2.264557091679193036e+03 1.043069620529214035e+03 5.306209801413298566e-01
1.571283950780521854e+00 2.434697533776950422e+03 1.134769143482183154e+03 5.470533177014209603e-01
1.647181327318630650e+00 2.609407057785041616e+03 1.233055430168516523e+03 5.775346828671361621e-01
1.723078703856739446e+00 2.788827532580301977e+03 1.339462708128303802e+03 6.080160480328512529e-01
1.798976080394848021e+00 2.973117434735991083e+03 1.454377099564328773e+03 6.384974131985663437e-01
1.874873456932956595e+00 3.162438497528518837e+03 1.578201355795732070e+03 6.689787783642814345e-01
1.950770833471065391e+00 3.356956000384537219e+03 1.711355452619558491e+03 6.994601435299966363e-01
2.026668210009174409e+00 3.556845971340784672e+03 1.855643039871392602e+03 7.432330892341700856e-01
2.102565586547282983e+00 3.762400430122920625e+03 2.020500703286077623e+03 8.578098174590256253e-01
