# density  energy_density  pressure   sound_speed_squared  [All in nuclear units]
2.720000000000000022e-14 2.529924618736292620e-11 1.061056609100270887e-19 3.766610435412189122e-08
1.269999999999999890e-13 1.181251617980081254e-10 4.870113551826584858e-18 6.497781477172163475e-08
6.929999999999999754e-13 6.445728594625782745e-10 1.018299070687946017e-16 3.033770597342807186e-07
6.295000000000000137e-12 5.855111460395753757e-09 5.487150723824490656e-15 1.763710043904196507e-06
1.581000000000000150e-11 1.470523320212576141e-08 2.904239460150760759e-14 3.559434472327477622e-06
3.971999999999999958e-11 3.694456170323160790e-08 1.439340266754906811e-13 6.772854871245677111e-06
9.975999999999999982e-11 9.278976412613005154e-08 6.812143616221268841e-13 1.246890511177539320e-05
2.505999999999999928e-10 2.330928829758143313e-07 3.107749196951638608e-12 2.212095130576091967e-05
6.294000000000000186e-10 5.854398883216247602e-07 1.363250409771533549e-11 3.761981047239428883e-05
1.581000000000000021e-09 1.470619631082054101e-06 5.726014178088476303e-11 6.095350986710739404e-05
3.971999999999999932e-09 3.694861084648016046e-06 2.210019573374265380e-10 8.628023653304385055e-05
5.000000000000000105e-09 4.651201787816927976e-06 3.071485916280120014e-10 9.387863480799757518e-05
9.975999999999999465e-09 9.280587964640925786e-06 8.385361004129998845e-10 1.356922228656245837e-04
1.989999999999999952e-08 1.851419242998081003e-05 2.287763168863418088e-09 1.782101978513718314e-04
3.972999999999999908e-08 3.696699295748789187e-05 6.061583099087538954e-09 2.308134738384234820e-04
7.925999999999999637e-08 7.375765469301719828e-05 1.575347858094044765e-08 2.960532096713864875e-04
1.580999999999999930e-07 1.471491184379128891e-04 3.910429618672550719e-08 3.402859755131850544e-04
1.991000000000000027e-07 1.853209783927820692e-04 5.252045687899177454e-08 3.626488188833278743e-04
3.155999999999999938e-07 2.938002528823880299e-04 9.730770378831954314e-08 4.630767356912104081e-04
5.000999999999999849e-07 4.656344063839075714e-04 1.837494945860225819e-07 5.430301232045120323e-04
6.295999999999999732e-07 5.862651417037388971e-04 2.503103884558263872e-07 5.605192962670089638e-04
9.666999999999999941e-07 9.003386739730535665e-04 4.324450868778576936e-07 5.993081670211623108e-04
1.531999999999999901e-06 1.427170885631398036e-03 7.780217275717420968e-07 7.125938556504039095e-04
2.506999999999999883e-06 2.336134972129507662e-03 1.471005394641589826e-06 8.121876172121876309e-04
3.974000000000000407e-06 3.704315759716615697e-03 2.695705763844323844e-06 9.780674166779417152e-04
4.830000000000000343e-06 4.502887798316278223e-03 3.503988717694660908e-06 1.046253037768318664e-03
6.080999999999999885e-06 5.670217999231269741e-03 4.731126407333307547e-06 1.056224360839501646e-03
7.930000000000000308e-06 7.396012414119570652e-03 6.599662989063778187e-06 1.109203753630785610e-03
9.982000000000000313e-06 9.311815711689977113e-03 8.879881089227186733e-06 1.271216815433141075e-03
1.256999999999999993e-05 1.172874412604260098e-02 1.207676739913533738e-05 1.374195438212825332e-03
1.521999999999999997e-05 1.420427250933824909e-02 1.547541302213394990e-05 1.371610497379100249e-03
1.991000000000000080e-05 1.858690797761085312e-02 2.160710455847765458e-05 1.426578142835871997e-03
2.506999999999999883e-05 2.341050104039446925e-02 2.908031724375689851e-05 1.672007475975408053e-03
2.790999999999999875e-05 2.606604784714952258e-02 3.357009132255487721e-05 1.709425557744154774e-03
3.806999999999999973e-05 3.556967988784798945e-02 4.986781576435106434e-05 1.720407281314112165e-03
5.063000000000000145e-05 4.732434580343149871e-02 7.073400252905581275e-05 1.829889149838781265e-03
6.592000000000000583e-05 6.164112392498975052e-02 9.765037643900635188e-05 1.930242980462695823e-03
8.433000000000000066e-05 7.888776783401378612e-02 1.317235490470395893e-04 2.021055815200022837e-03
1.062000000000000064e-04 9.938561165478684845e-02 1.740088341640037047e-04 2.104789529260958983e-03
1.321000000000000126e-04 1.236720406455826121e-01 2.260189757651373944e-04 2.178291718403657477e-03
1.623999999999999901e-04 1.520974545104751274e-01 2.888169908545388338e-04 2.240170365918073281e-03
1.689999999999999879e-04 1.582907717069566844e-01 3.027354772999506964e-04 2.254509350360745651e-03
1.758999999999999930e-04 1.647661861691531171e-01 3.173785841705756782e-04 2.268169273277113179e-03
1.830000000000000029e-04 1.714298948183871907e-01 3.325196584577469103e-04 2.276170334580628063e-03
1.901999999999999882e-04 1.781880600978280049e-01 3.479577791899843742e-04 2.292561569242367037e-03
1.977000000000000079e-04 1.852284385240466902e-01 3.641242634600037713e-04 2.299943765467868384e-03
2.054000000000000053e-04 1.924572004474696396e-01 3.808304060475003897e-04 2.322187632288155723e-03
2.079000000000000119e-04 1.948043378760714872e-01 3.864137987380476553e-04 2.435429768083530178e-03
2.081999999999999921e-04 1.950859988578999005e-01 3.870314100985603909e-04 1.950065624557156818e-03
2.090999999999999868e-04 1.959309855029948977e-01 3.881261957135444685e-04 6.411875526909013856e-04
2.159999999999999919e-04 2.024093317906446865e-01 3.940874488768042125e-04 1.199166870571831411e-03
2.231000000000000019e-04 2.090756740932291913e-01 4.013938420547467825e-04 9.928616047829054436e-04
2.311000000000000066e-04 2.165873044433437034e-01 4.085241694843774404e-04 9.056166966301716637e-04
2.401000000000000085e-04 2.250381721984245909e-01 4.159700687886608468e-04 8.565463878902855599e-04
2.500000000000000052e-04 2.343344406330727658e-01 4.237602369176299592e-04 8.194318812157330018e-04
2.642999999999999733e-04 2.477629128650125634e-01 4.345596643180389446e-04 7.890063723638815647e-04
3.052999999999999941e-04 2.862671839140227270e-01 4.644058706720978241e-04 7.612775562167708662e-04
3.533000000000000224e-04 3.313503829113090826e-01 4.987577676308450197e-04 7.626578558207241024e-04
4.075999999999999871e-04 3.823564017794535141e-01 5.381334366106255759e-04 7.813048116943254948e-04
4.679999999999999915e-04 4.390986251953180042e-01 5.832692638200615834e-04 8.096035963157804938e-04
5.341000000000000261e-04 5.012024644415256081e-01 6.346556894078133086e-04 8.452514814113673558e-04
6.059000000000000366e-04 5.686690698184251325e-01 6.930641302632923034e-04 8.862253587289389486e-04
7.661000000000000275e-04 7.192254882508629654e-01 8.328184776562496576e-04 9.702780530519144065e-04
1.262000000000000101e-03 1.185459127778160093e+00 1.338484980802662205e-03 1.198863597978450275e-03
1.894999999999999983e-03 1.780909071169781921e+00 2.123481960401060308e-03 1.437771491635827115e-03
2.673000000000000029e-03 2.513147344746868850e+00 3.261860252001994032e-03 1.671524566936786766e-03
3.605999999999999830e-03 3.391736073717691369e+00 4.828136641022434151e-03 1.893900408978071038e-03
4.709999999999999777e-03 4.431905410739045870e+00 6.903512974832482635e-03 2.096551352830673849e-03
7.496000000000000059e-03 7.058993649504918366e+00 1.289742191321638018e-02 2.466596387205546859e-03
1.119999999999999989e-02 1.055540362104863661e+01 2.212077014004794340e-02 2.809304433764861584e-03
1.600000000000000033e-02 1.509117352747679952e+01 3.559566804390756900e-02 3.132325055719984222e-03
2.206999999999999934e-02 2.083310616724802244e+01 5.457322122755020599e-02 3.477840948757840792e-03
2.947999999999999926e-02 2.785007348564149154e+01 8.049103664263126956e-02 3.909302116317729670e-03
4.268000000000000266e-02 4.036707211535221518e+01 1.353887601042819133e-01 4.862066536253286525e-03
6.219999999999999835e-02 5.891246509830522626e+01 2.419691225623893105e-01 6.630786177272363080e-03
7.316999999999999893e-02 6.935151695866235855e+01 3.161896974764099033e-01 7.588671314871411888e-03
7.595999999999999974e-02 7.200836722020332559e+01 3.371250777904805096e-01 8.170805199905812125e-03
7.685877551020407761e-02 7.286441685038569460e+01 3.442147317923330840e-01 8.392837284062563616e-03
7.775755102040816935e-02 7.372055053510044331e+01 3.515014379145750545e-01 8.629508398075580455e-03
7.865632653061224722e-02 7.457676965163361160e+01 3.589975524010646235e-01 8.880284634412474384e-03
7.955510204081632508e-02 7.543307568442291711e+01 3.667149799638002583e-01 9.144632085540884900e-03
8.045387755102040295e-02 7.628947021632419023e+01 3.746651737481887512e-01 9.422016843928434152e-03
8.135265306122449469e-02 7.714595492026747081e+01 3.828591352960062366e-01 9.711905002042749493e-03
8.225142857142857256e-02 7.800253155128191906e+01 3.913074145037817031e-01 1.001376265235145654e-02
8.315020408163265042e-02 7.885920193886833829e+01 4.000201095745624658e-01 1.032705588732217745e-02
8.404897959183672829e-02 7.971596797970126147e+01 4.090068669612279550e-01 1.065125079942254652e-02
8.494775510204082003e-02 8.057283163064231246e+01 4.182768812997180174e-01 1.098581348112018935e-02
8.584653061224489790e-02 8.142979490204874082e+01 4.278388953307220577e-01 1.133021002488271943e-02
8.674530612244897576e-02 8.228685985136125680e+01 4.377011998085488798e-01 1.168390652317778146e-02
8.764408163265305363e-02 8.314402857695648663e+01 4.478716333960511831e-01 1.204636906847299065e-02
8.854285714285714537e-02 8.400130321225068997e+01 4.583575825446318253e-01 1.241706375323598129e-02
8.944163265306122323e-02 8.485868592004111122e+01 4.691659813584936889e-01 1.279545666993437032e-02
9.034040816326530110e-02 8.571617888707426403e+01 4.803033114424292704e-01 1.318101391103579031e-02
9.123918367346939284e-02 8.657378431882773384e+01 4.917756017325612405e-01 1.357320156900786862e-02
9.213795918367347071e-02 8.743150443449643205e+01 5.035884283095632963e-01 1.397148573631822738e-02
9.303673469387754857e-02 8.828934146217278567e+01 5.157469141939984292e-01 1.437533250543449048e-02
9.393551020408162644e-02 8.914729763421037489e+01 5.282557291235049357e-01 1.478420796882429396e-02
9.483428571428570431e-02 9.000537518276347271e+01 5.411190893116621936e-01 1.519757821895525648e-02
9.573306122448979605e-02 9.086357633549327772e+01 5.543407571884514384e-01 1.561490934829501409e-02
9.663183673469387391e-02 9.172190331143212916e+01 5.679240411223102081e-01 1.603566744931117852e-02
9.753061224489795178e-02 9.258035831700003371e+01 5.818717951238615571e-01 1.645931861447138753e-02
9.842938775510204352e-02 9.343894354216448050e+01 5.961864185314650344e-01 1.688532893624326847e-02
9.932816326530612139e-02 9.429766115673741922e+01 6.108698556788114686e-01 1.731316450709443483e-02
1.002269387755101993e-01 9.515651330680424280e+01 6.259235955448502198e-01 1.774229141949252436e-02
1.011257142857142910e-01 9.601550211127606360e+01 6.413486713863923994e-01 1.817217576590517136e-02
1.020244897959183689e-01 9.687462965856269648e+01 6.571456603537975116e-01 1.860228363879997543e-02
1.029232653061224467e-01 9.773389800335863242e+01 6.733146830902083657e-01 1.903208113064458473e-02
1.038220408163265246e-01 9.859330916353769680e+01 6.898554033148417419e-01 1.946103433390662316e-02
1.047208163265306025e-01 9.945286511715204369e+01 7.067670273909031353e-01 1.988860934105371112e-02
1.056195918367346942e-01 1.003125677995299725e+02 7.240483038787329795e-01 2.031427224455348637e-02
1.065183673469387721e-01 1.011724191004686162e+02 7.416975230748392711e-01 2.073748913687355894e-02
1.074171428571428499e-01 1.020324208615179060e+02 7.597125165375162581e-01 2.115772611048156657e-02
1.083159183673469417e-01 1.028925748733511085e+02 7.780906565997821600e-01 2.157444925784513662e-02
1.092146938775510195e-01 1.037528828732184678e+02 7.968288558704139657e-01 2.198712467143188257e-02
1.101134693877550974e-01 1.046133465424805138e+02 8.159235667238931011e-01 2.239521844370944217e-02
1.110122448979591891e-01 1.054739675042181659e+02 8.353707807801044050e-01 2.279819666714544973e-02
1.119110204081632531e-01 1.063347473209150706e+02 8.551660283746704838e-01 2.319552543420751178e-02
1.128097959183673449e-01 1.071956874922114054e+02 8.753043780208368263e-01 2.358667083736327302e-02
1.137085714285714227e-01 1.080567894527232937e+02 8.957804358638388198e-01 2.397109896908033999e-02
1.146073469387755006e-01 1.089180545699285574e+02 9.165883451287348826e-01 2.434827592182635392e-02
1.155061224489795924e-01 1.097794841421130769e+02 9.377217855626923670e-01 2.471766778806894910e-02
1.164048979591836702e-01 1.106410793963774637e+02 9.591739728727559644e-01 2.507874066027573901e-02
1.173036734693877481e-01 1.115028414867007172e+02 9.809376581601498835e-01 2.543096063091433712e-02
1.182024489795918398e-01 1.123647714920585940e+02 1.003005127352183612e+00 2.577379379245240548e-02
1.191012244897959177e-01 1.132268704145956804e+02 1.025368200632859939e+00 2.610670623735753329e-02
1.199999999999999956e-01 1.140891391778473860e+02 1.048018231873309558e+00 2.642916405809736871e-02
1.209745445162758726e-01 1.150242922727337032e+02 1.072892970339811791e+00 2.677009198391576417e-02
1.219490890325517496e-01 1.159596470651777054e+02 1.098093904375400109e+00 2.711517158734259164e-02
1.229236335488276266e-01 1.168952045662780961e+02 1.123625092272374060e+00 2.746442039933374990e-02
1.238981780651035036e-01 1.178309658033561220e+02 1.149490612505770448e+00 2.781785540880693172e-02
1.248727225813793806e-01 1.187669318197296207e+02 1.175694563283343541e+00 2.817549306517839677e-02
1.258472670976552577e-01 1.197031036744905066e+02 1.202241062097857416e+00 2.853734928077602401e-02
1.268218116139311347e-01 1.206394824422865213e+02 1.229134245281565230e+00 2.890343943312898359e-02
1.277963561302070117e-01 1.215760692131052281e+02 1.256378267562751505e+00 2.927377836713958639e-02
1.287709006464828887e-01 1.225128650920616451e+02 1.283977301624218859e+00 2.964838039713963563e-02
1.297454451627587657e-01 1.234498711991893174e+02 1.311935537663599050e+00 3.002725930883527045e-02
1.307199896790346427e-01 1.243870886692340036e+02 1.340257182955375326e+00 3.041042836114231374e-02
1.316945341953105197e-01 1.253245186514497647e+02 1.368946461414502824e+00 3.079790028791603088e-02
1.326690787115863968e-01 1.262621623093994572e+02 1.398007613161516005e+00 3.118968729957740521e-02
1.336436232278622738e-01 1.272000208207556256e+02 1.427444894089016092e+00 3.158580108463864000e-02
1.346181677441381508e-01 1.281380953771062536e+02 1.457262575429430829e+00 3.198625281113124524e-02
1.355927122604140278e-01 1.290763871837616534e+02 1.487464943323943967e+00 3.239105312793819080e-02
1.365672567766899048e-01 1.300148974595641107e+02 1.518056298392491232e+00 3.280021216603255102e-02
1.375418012929657818e-01 1.309536274366999180e+02 1.549040955304723521e+00 3.321373953962580838e-02
1.385163458092416588e-01 1.318925783605142215e+02 1.580423242351836732e+00 3.363164434722710344e-02
1.394908903255175359e-01 1.328317514893270186e+02 1.612207501019173206e+00 3.405393517261521424e-02
1.404654348417934129e-01 1.337711480942524247e+02 1.644398085559498401e+00 3.448062008572690129e-02
1.414399793580692899e-01 1.347107694590192466e+02 1.676999362566858442e+00 3.491170664346146535e-02
1.424145238743451669e-01 1.356506168797934038e+02 1.710015710550927048e+00 3.534720189040466143e-02
1.433890683906210439e-01 1.365906916650034191e+02 1.743451519511749925e+00 3.578711235947342612e-02
1.443636129068969209e-01 1.375309951351667905e+02 1.777311190514796690e+00 3.623144407248302806e-02
1.453381574231727980e-01 1.384715286227180400e+02 1.811599135266232619e+00 3.668020254063814739e-02
1.463127019394486750e-01 1.394122934718392628e+02 1.846319775688321618e+00 3.713339276494975055e-02
1.472872464557245520e-01 1.403532910382920420e+02 1.881477543494875171e+00 3.759101923657914845e-02
1.482617909720004012e-01 1.412945226892510391e+02 1.917076879766660413e+00 3.805308593711045212e-02
1.492363354882762783e-01 1.422359898031386649e+02 1.953122234526688761e+00 3.851959633875311206e-02
1.502108800045521553e-01 1.431776937694621950e+02 1.989618066315288702e+00 3.899055340447577650e-02
1.511854245208280323e-01 1.441196359886518223e+02 2.026568841764897932e+00 3.946595958807255777e-02
1.521599690371039093e-01 1.450618178719000184e+02 2.063979035174480448e+00 3.994581683416344176e-02
1.531345135533797863e-01 1.460042408410026553e+02 2.101853128083492894e+00 4.043012657812931204e-02
1.541090580696556633e-01 1.469469063282012655e+02 2.140195608845320674e+00 4.091888974598329592e-02
1.550836025859315404e-01 1.478898157760265519e+02 2.179010972200102980e+00 4.141210675417943132e-02
1.560581471022074174e-01 1.488329706371432337e+02 2.218303718846869721e+00 4.190977750935940410e-02
1.570326916184832944e-01 1.497763723741962281e+02 2.258078355014914163e+00 4.241190140803873659e-02
1.580072361347591714e-01 1.507200224596572582e+02 2.298339392034320028e+00 4.291847733623316286e-02
1.589817806510350484e-01 1.516639223756739625e+02 2.339091345905572883e+00 4.342950366902617598e-02
1.599563251673109254e-01 1.526080736139188900e+02 2.380338736868173655e+00 4.394497827007884383e-02
1.609308696835868024e-01 1.535524776754396044e+02 2.422086088968184114e+00 4.446489849108242048e-02
1.619054141998626795e-01 1.544971360705107486e+02 2.464337929624627943e+00 4.498926117115478046e-02
1.628799587161385565e-01 1.554420503184857694e+02 2.507098789194671884e+00 4.551806263618160542e-02
1.638545032324144335e-01 1.563872219476509144e+02 2.550373200537515928e+00 4.605129869810269810e-02
1.648290477486903105e-01 1.573326524950786336e+02 2.594165698576917922e+00 4.658896465414462396e-02
1.658035922649661875e-01 1.582783435064834521e+02 2.638480819862278892e+00 4.713105528600004812e-02
1.667781367812420645e-01 1.592242965360769631e+02 2.683323102128218451e+00 4.767756485895460750e-02
1.677526812975179415e-01 1.601705131464256908e+02 2.728697083852567928e+00 4.822848712096199086e-02
2.459618102506297976e-01 2.379337687799072114e+02 1.248795575274658098e+01 1.991245134046584764e-01
3.241709392037416815e-01 3.205932233410046024e+02 3.544891715579607450e+01 3.500205396883550590e-01
4.023800681568535653e-01 4.102144442339614443e+02 7.027975419141938573e+01 4.239714291486094133e-01
4.805891971099653937e-01 5.073327793611934453e+02 1.111480293912836288e+02 4.186930774593382587e-01
5.587983260630773330e-01 6.113161171094581050e+02 1.543703726209517981e+02 4.134147257700670486e-01
6.370074550161891613e-01 7.215049492593109335e+02 1.996001464244895089e+02 4.081363740807958940e-01
7.152165839693011007e-01 8.373639821195355353e+02 2.465528020512350622e+02 4.028580223915246838e-01
7.934257129224129290e-01 9.584468906577019425e+02 2.949885698335331199e+02 3.975796707022535292e-01
8.716348418755247573e-01 1.084373703379339986e+03 3.447013619787983316e+02 3.923013190129823191e-01
9.498439708286366967e-01 1.214815531909795936e+03 3.955112670725118846e+02 3.870229673237111645e-01
1.028053099781748525e+00 1.349483834778196524e+03 4.472592562679245702e+02 3.817446156344399544e-01
1.106262228734860242e+00 1.488122617162957567e+03 4.998033208471043167e+02 3.764662639451687998e-01
1.184471357687972182e+00 1.630502607331298577e+03 5.530155742956342237e+02 3.711879122558976452e-01
1.262680486641084121e+00 1.776416807907572093e+03 6.067800264125589820e+02 3.659095605666264350e-01
1.340889615594195838e+00 1.925795943553115649e+03 6.675988781012874824e+02 4.470672233983503108e-01
1.419098744547307778e+00 2.079179634071593682e+03 7.482350284531946727e+02 6.009826382225861297e-01
1.497307873500419717e+00 2.237681254924357745e+03 8.560528599471474536e+02 7.548980530468218930e-01
1.575517002453531434e+00 2.402512490473916841e+03 9.936538649430968917e+02 9.088134678710573233e-01
1.653726131406643374e+00 2.574877719618594710e+03 1.143752679974168132e+03 8.357810052259250222e-01
1.731935260359755313e+00 2.754172100211294946e+03 1.285461845043922040e+03 7.479224999406298702e-01
1.810144389312867030e+00 2.939607934557758199e+03 1.415784267199175929e+03 6.600639946553350512e-01
1.888353518265978970e+00 3.130391450389214242e+03 1.533149546190391902e+03 5.722054893700398992e-01
1.966562647219090909e+00 3.325734214552634967e+03 1.636198597228079507e+03 4.843469840847448582e-01
2.044771776172202848e+00 3.524882638078266609e+03 1.725650886803498224e+03 4.149238733869745621e-01
