# density  energy_density  pressure   sound_speed_squared  [All in nuclear units]
2.720000000000000022e-14 2.529924618736292620e-11 1.061056609100270887e-19 3.766610435412189122e-08
1.269999999999999890e-13 1.181251617980081254e-10 4.870113551826584858e-18 6.497781477172163475e-08
6.929999999999999754e-13 6.445728594625782745e-10 1.018299070687946017e-16 3.033770597342807186e-07
6.295000000000000137e-12 5.855111460395753757e-09 5.487150723824490656e-15 1.763710043904196507e-06
1.581000000000000150e-11 1.470523320212576141e-08 2.904239460150760759e-14 3.559434472327477622e-06
3.971999999999999958e-11 3.694456170323160790e-08 1.439340266754906811e-13 6.772854871245677111e-06
9.975999999999999982e-11 9.278976412613005154e-08 6.812143616221268841e-13 1.246890511177539320e-05
2.505999999999999928e-10 2.330928829758143313e-07 3.107749196951638608e-12 2.212095130576091967e-05
6.294000000000000186e-10 5.854398883216247602e-07 1.363250409771533549e-11 3.761981047239428883e-05
1.581000000000000021e-09 1.470619631082054101e-06 5.726014178088476303e-11 6.095350986710739404e-05
3.971999999999999932e-09 3.694861084648016046e-06 2.210019573374265380e-10 8.628023653304385055e-05
5.000000000000000105e-09 4.651201787816927976e-06 3.071485916280120014e-10 9.387863480799757518e-05
9.975999999999999465e-09 9.280587964640925786e-06 8.385361004129998845e-10 1.356922228656245837e-04
1.989999999999999952e-08 1.851419242998081003e-05 2.287763168863418088e-09 1.782101978513718314e-04
3.972999999999999908e-08 3.696699295748789187e-05 6.061583099087538954e-09 2.308134738384234820e-04
7.925999999999999637e-08 7.375765469301719828e-05 1.575347858094044765e-08 2.960532096713864875e-04
1.580999999999999930e-07 1.471491184379128891e-04 3.910429618672550719e-08 3.402859755131850544e-04
1.991000000000000027e-07 1.853209783927820692e-04 5.252045687899177454e-08 3.626488188833278743e-04
3.155999999999999938e-07 2.938002528823880299e-04 9.730770378831954314e-08 4.630767356912104081e-04
5.000999999999999849e-07 4.656344063839075714e-04 1.837494945860225819e-07 5.430301232045120323e-04
6.295999999999999732e-07 5.862651417037388971e-04 2.503103884558263872e-07 5.605192962670089638e-04
9.666999999999999941e-07 9.003386739730535665e-04 4.324450868778576936e-07 5.993081670211623108e-04
1.531999999999999901e-06 1.427170885631398036e-03 7.780217275717420968e-07 7.125938556504039095e-04
2.506999999999999883e-06 2.336134972129507662e-03 1.471005394641589826e-06 8.121876172121876309e-04
3.974000000000000407e-06 3.704315759716615697e-03 2.695705763844323844e-06 9.780674166779417152e-04
4.830000000000000343e-06 4.502887798316278223e-03 3.503988717694660908e-06 1.046253037768318664e-03
6.080999999999999885e-06 5.670217999231269741e-03 4.731126407333307547e-06 1.056224360839501646e-03
7.930000000000000308e-06 7.396012414119570652e-03 6.599662989063778187e-06 1.109203753630785610e-03
9.982000000000000313e-06 9.311815711689977113e-03 8.879881089227186733e-06 1.271216815433141075e-03
1.256999999999999993e-05 1.172874412604260098e-02 1.207676739913533738e-05 1.374195438212825332e-03
1.521999999999999997e-05 1.420427250933824909e-02 1.547541302213394990e-05 1.371610497379100249e-03
1.991000000000000080e-05 1.858690797761085312e-02 2.160710455847765458e-05 1.426578142835871997e-03
2.506999999999999883e-05 2.341050104039446925e-02 2.908031724375689851e-05 1.672007475975408053e-03
2.790999999999999875e-05 2.606604784714952258e-02 3.357009132255487721e-05 1.709425557744154774e-03
3.806999999999999973e-05 3.556967988784798945e-02 4.986781576435106434e-05 1.720407281314112165e-03
5.063000000000000145e-05 4.732434580343149871e-02 7.073400252905581275e-05 1.829889149838781265e-03
6.592000000000000583e-05 6.164112392498975052e-02 9.765037643900635188e-05 1.930242980462695823e-03
8.433000000000000066e-05 7.888776783401378612e-02 1.317235490470395893e-04 2.021055815200022837e-03
1.062000000000000064e-04 9.938561165478684845e-02 1.740088341640037047e-04 2.104789529260958983e-03
1.321000000000000126e-04 1.236720406455826121e-01 2.260189757651373944e-04 2.178291718403657477e-03
1.623999999999999901e-04 1.520974545104751274e-01 2.888169908545388338e-04 2.240170365918073281e-03
1.689999999999999879e-04 1.582907717069566844e-01 3.027354772999506964e-04 2.254509350360745651e-03
1.758999999999999930e-04 1.647661861691531171e-01 3.173785841705756782e-04 2.268169273277113179e-03
1.830000000000000029e-04 1.714298948183871907e-01 3.325196584577469103e-04 2.276170334580628063e-03
1.901999999999999882e-04 1.781880600978280049e-01 3.479577791899843742e-04 2.292561569242367037e-03
1.977000000000000079e-04 1.852284385240466902e-01 3.641242634600037713e-04 2.299943765467868384e-03
2.054000000000000053e-04 1.924572004474696396e-01 3.808304060475003897e-04 2.322187632288155723e-03
2.079000000000000119e-04 1.948043378760714872e-01 3.864137987380476553e-04 2.435429768083530178e-03
2.081999999999999921e-04 1.950859988578999005e-01 3.870314100985603909e-04 1.950065624557156818e-03
2.090999999999999868e-04 1.959309855029948977e-01 3.881261957135444685e-04 6.411875526909013856e-04
2.159999999999999919e-04 2.024093317906446865e-01 3.940874488768042125e-04 1.199166870571831411e-03
2.231000000000000019e-04 2.090756740932291913e-01 4.013938420547467825e-04 9.928616047829054436e-04
2.311000000000000066e-04 2.165873044433437034e-01 4.085241694843774404e-04 9.056166966301716637e-04
2.401000000000000085e-04 2.250381721984245909e-01 4.159700687886608468e-04 8.565463878902855599e-04
2.500000000000000052e-04 2.343344406330727658e-01 4.237602369176299592e-04 8.194318812157330018e-04
2.642999999999999733e-04 2.477629128650125634e-01 4.345596643180389446e-04 7.890063723638815647e-04
3.052999999999999941e-04 2.862671839140227270e-01 4.644058706720978241e-04 7.612775562167708662e-04
3.533000000000000224e-04 3.313503829113090826e-01 4.987577676308450197e-04 7.626578558207241024e-04
4.075999999999999871e-04 3.823564017794535141e-01 5.381334366106255759e-04 7.813048116943254948e-04
4.679999999999999915e-04 4.390986251953180042e-01 5.832692638200615834e-04 8.096035963157804938e-04
5.341000000000000261e-04 5.012024644415256081e-01 6.346556894078133086e-04 8.452514814113673558e-04
6.059000000000000366e-04 5.686690698184251325e-01 6.930641302632923034e-04 8.862253587289389486e-04
7.661000000000000275e-04 7.192254882508629654e-01 8.328184776562496576e-04 9.702780530519144065e-04
1.262000000000000101e-03 1.185459127778160093e+00 1.338484980802662205e-03 1.198863597978450275e-03
1.894999999999999983e-03 1.780909071169781921e+00 2.123481960401060308e-03 1.437771491635827115e-03
2.673000000000000029e-03 2.513147344746868850e+00 3.261860252001994032e-03 1.671524566936786766e-03
3.605999999999999830e-03 3.391736073717691369e+00 4.828136641022434151e-03 1.893900408978071038e-03
4.709999999999999777e-03 4.431905410739045870e+00 6.903512974832482635e-03 2.096551352830673849e-03
7.496000000000000059e-03 7.058993649504918366e+00 1.289742191321638018e-02 2.466596387205546859e-03
1.119999999999999989e-02 1.055540362104863661e+01 2.212077014004794340e-02 2.809304433764861584e-03
1.600000000000000033e-02 1.509117352747679952e+01 3.559566804390756900e-02 3.132325055719984222e-03
2.206999999999999934e-02 2.083310616724802244e+01 5.457322122755020599e-02 3.477840948757840792e-03
2.947999999999999926e-02 2.785007348564149154e+01 8.049103664263126956e-02 3.909302116317729670e-03
4.268000000000000266e-02 4.036707211535221518e+01 1.353887601042819133e-01 4.862066536253286525e-03
6.219999999999999835e-02 5.891246509830522626e+01 2.419691225623893105e-01 6.630786177272363080e-03
7.316999999999999893e-02 6.935151695866235855e+01 3.161896974764099033e-01 7.588671314871411888e-03
7.595999999999999974e-02 7.200836722020332559e+01 3.371250777904805096e-01 8.170805199905810390e-03
7.685877551020407761e-02 7.286441678624724716e+01 3.442037554605778538e-01 8.367195644508978319e-03
7.775755102040816935e-02 7.372055010974411005e+01 3.514504508157146878e-01 8.561690817137600912e-03
7.865632653061224722e-02 7.457676815651957725e+01 3.588637481873127033e-01 8.754678441485098592e-03
7.955510204081632508e-02 7.543307185603597986e+01 3.664425637236278233e-01 8.946546241244884845e-03
8.045387755102040295e-02 7.628946210637501224e+01 3.741861455314419715e-01 9.137681940110380097e-03
8.135265306122449469e-02 7.714593977899876620e+01 3.820940738244183454e-01 9.328473261774999567e-03
8.225142857142857256e-02 7.800250572330230625e+01 3.901662610776879259e-01 9.519307929932155007e-03
8.315020408163265042e-02 7.885916077096935339e+01 3.984029521883129532e-01 9.710573668275268577e-03
8.404897959183672829e-02 7.971590574014061303e+01 4.068047246413395435e-01 9.902658200497750293e-03
8.494775510204082003e-02 8.057274143940600197e+01 4.153724886812205641e-01 1.009594925029302405e-02
8.584653061224489790e-02 8.142966867162994049e+01 4.241074874884475099e-01 1.029083454135449813e-02
8.674530612244897576e-02 8.228668823761806550e+01 4.330112973612899041e-01 1.048770179737559642e-02
8.764408163265305363e-02 8.314380093963340812e+01 4.420858279025902116e-01 1.068693874204972895e-02
8.854285714285714537e-02 8.400100758477162799e+01 4.513333222116145405e-01 1.088893309907031787e-02
8.944163265306122323e-02 8.485830898819939705e+01 4.607563570810043196e-01 1.109407259213077319e-02
9.034040816326530110e-02 8.571570597626602250e+01 4.703578431989192121e-01 1.130274494492451362e-02
9.123918367346939284e-02 8.657319938949251537e+01 4.801410253564989405e-01 1.151533788114495784e-02
9.213795918367347071e-02 8.743079008544528108e+01 4.901094826608129451e-01 1.173223912448551932e-02
9.303673469387754857e-02 8.828847894149956232e+01 5.002671287535027655e-01 1.195383639863961504e-02
9.393551020408162644e-02 8.914626685749831836e+01 5.106182120353518483e-01 1.218051742730066368e-02
9.483428571428570431e-02 9.000415475831165679e+01 5.211673158970543396e-01 1.241266993416207526e-02
9.573306122448979605e-02 9.086214359630103843e+01 5.319193589564800151e-01 1.265068164291727366e-02
9.663183673469387391e-02 9.172023435369359845e+01 5.428795953027629739e-01 1.289494027725967065e-02
9.753061224489795178e-02 9.257842804487027877e+01 5.540536147475686457e-01 1.314583356088268144e-02
9.842938775510204352e-02 9.343672571857210585e+01 5.654473430839149772e-01 1.340374921747972993e-02
9.932816326530612139e-02 9.429512846002774040e+01 5.770670423529518089e-01 1.366907497074422093e-02
1.002269387755101993e-01 9.515363739300715906e+01 5.889193111191237673e-01 1.394219854436957833e-02
1.011257142857142910e-01 9.601225368180404018e+01 6.010110847541595414e-01 1.422350766204922255e-02
1.020244897959183689e-01 9.687097853314944018e+01 6.133496357303543922e-01 1.451339004747655495e-02
1.029232653061224467e-01 9.772981319806197575e+01 6.259425739236327280e-01 1.481223342434500115e-02
1.038220408163265246e-01 9.858875897363469676e+01 6.387978469268895676e-01 1.512042551634798157e-02
1.047208163265306025e-01 9.944781720476431985e+01 6.519237403741332537e-01 1.543835404717890450e-02
1.056195918367346942e-01 1.003069892858221408e+02 6.653288782759652076e-01 1.576640674053119903e-02
1.065183673469387721e-01 1.011662766622727503e+02 6.790222233669469531e-01 1.610497132009826304e-02
1.074171428571428499e-01 1.020256808322397717e+02 6.930130774654236214e-01 1.645443550957352216e-02
1.083159183673469417e-01 1.028852033480230830e+02 7.073110818463814731e-01 1.681518703265039508e-02
1.092146938775510195e-01 1.037448458175681196e+02 7.219262176279340748e-01 1.718761361302229701e-02
1.101134693877550974e-01 1.046046099058909675e+02 7.368688061720474192e-01 1.757210297438263624e-02
1.110122448979591891e-01 1.054644973364592602e+02 7.521495095001180520e-01 1.796904284042484534e-02
1.119110204081632531e-01 1.063245098925322480e+02 7.677793307240379228e-01 1.837882093484231871e-02
1.128097959183673449e-01 1.071846494184617455e+02 7.837696144933925524e-01 1.880182498132849239e-02
1.137085714285714227e-01 1.080449178209543817e+02 8.001320474594352250e-01 1.923844270357677119e-02
1.146073469387755006e-01 1.089053170702982101e+02 8.168786587565147750e-01 1.968906182528057727e-02
1.155061224489795924e-01 1.097658492015547012e+02 8.340218205016204367e-01 2.015407007013333279e-02
1.164048979591836702e-01 1.106265163157174527e+02 8.515742483127326512e-01 2.063385516182843216e-02
1.173036734693877481e-01 1.114873205808392527e+02 8.695490018466741633e-01 2.112880482405931140e-02
1.182024489795918398e-01 1.123482642331285746e+02 8.879594853571614044e-01 2.163930678051938575e-02
1.191012244897959177e-01 1.132093495780172532e+02 9.068194482737681472e-01 2.216574875490206348e-02
1.199999999999999956e-01 1.140705789912005059e+02 9.261429858025262973e-01 2.270851847090075634e-02
1.214841831081373419e-01 1.154930834984816386e+02 9.591041354900021743e-01 2.363377884673430532e-02
1.229683662162747021e-01 1.169159988109289401e+02 9.933984400110591473e-01 2.456897034418672326e-02
1.244525493244120484e-01 1.183393361515301763e+02 1.029040892273083152e+00 2.551382929298142560e-02
1.259367324325494086e-01 1.197631066524119490e+02 1.066046152747838871e+00 2.646809381798509442e-02
1.274209155406867411e-01 1.211873213541480823e+02 1.104428551882341791e+00 2.743150387934643539e-02
1.289050986488241013e-01 1.226119912051292573e+02 1.144202092530619108e+00 2.840380131109510389e-02
1.303892817569614337e-01 1.240371270609890502e+02 1.185380452405222051e+00 2.938472985823073827e-02
1.318734648650987940e-01 1.254627396840849514e+02 1.227976986547433480e+00 3.037403521233313433e-02
1.333576479732361542e-01 1.268888397430292798e+02 1.272004729815106483e+00 3.137146504571889510e-02
1.348418310813734866e-01 1.283154378122706021e+02 1.317476399387148112e+00 3.237676904417178397e-02
1.363260141895108468e-01 1.297425443717193332e+02 1.364404397283668136e+00 3.338969893827227475e-02
1.378101972976482070e-01 1.311701698064188690e+02 1.412800812900841585e+00 3.441000853334901660e-02
1.392943804057855395e-01 1.325983244062568076e+02 1.462677425559586242e+00 3.543745373807785648e-02
1.407785635139228997e-01 1.340270183657167991e+02 1.514045707067156465e+00 3.647179259174714028e-02
1.422627466220602321e-01 1.354562617836673155e+02 1.566916824290780275e+00 3.751278529021494917e-02
1.437469297301975923e-01 1.368860646631863176e+02 1.621301641742517230e+00 3.856019421057560459e-02
1.452311128383349526e-01 1.383164369114200554e+02 1.677210724174486467e+00 3.961378393455727148e-02
1.467152959464722850e-01 1.397473883394735878e+02 1.734654339183683280e+00 4.067332127066958236e-02
1.481994790546096452e-01 1.411789286623335329e+02 1.793642459825585567e+00 4.173857527512092602e-02
1.496836621627470054e-01 1.426110674988180449e+02 1.854184767235770304e+00 4.280931727152240129e-02
1.511678452708843379e-01 1.440438143715568913e+02 1.916290653258799770e+00 4.388532086939787857e-02
1.526520283790216981e-01 1.454771787069967104e+02 1.979969223083624330e+00 4.496636198151642005e-02
1.541362114871590583e-01 1.469111698354325313e+02 2.045229297884758157e+00 4.605221884006467647e-02
1.556203945952963907e-01 1.483457969910629117e+02 2.112079417468528675e+00 4.714267201167594845e-02
1.571045777034337509e-01 1.497810693120687517e+02 2.180527842923678072e+00 4.823750441133172612e-02
1.585887608115710834e-01 1.512169958407140484e+02 2.250582559275600580e+00 4.933650131515207593e-02
1.600729439197084436e-01 1.526535855234674841e+02 2.322251278143557585e+00 5.043945037209027205e-02
1.615571270278458038e-01 1.540908472111444212e+02 2.395541440400141830e+00 5.154614161454695170e-02
1.630413101359831363e-01 1.555287896590679679e+02 2.470460218832347454e+00 5.265636746791908102e-02
1.645254932441204965e-01 1.569674215272486606e+02 2.547014520803559723e+00 5.376992275909813629e-02
1.660096763522578289e-01 1.584067513805814542e+02 2.625210990915781029e+00 5.488660472393212808e-02
1.674938594603951891e-01 1.598467876890592265e+02 2.705056013671470083e+00 5.600621301366601884e-02
1.689780425685325493e-01 1.612875388280026527e+02 2.786555716134286431e+00 5.712854970037416907e-02
1.704622256766699095e-01 1.627290130783056838e+02 2.869715970588131881e+00 5.825341928139860653e-02
1.719464087848072420e-01 1.641712186266947242e+02 2.954542397193807179e+00 5.938062868280734319e-02
1.734305918929446022e-01 1.656141635660027305e+02 3.041040366642654647e+00 6.050998726188537569e-02
1.749147750010819347e-01 1.670578558954552761e+02 3.129215002806514878e+00 6.164130680867171280e-02
1.763989581092192949e-01 1.685023035209714806e+02 3.219071185383394873e+00 6.277440154655639093e-02
1.778831412173566551e-01 1.699475142554752836e+02 3.310613552538156146e+00 6.390908813194849658e-02
1.793673243254939875e-01 1.713934958192182307e+02 3.403846503537620194e+00 6.504518565302962185e-02
1.808515074336313477e-01 1.728402558401151907e+02 3.498774201379437176e+00 6.618251562760445184e-02
1.823356905417686802e-01 1.742878018540885705e+02 3.595400575414056998e+00 6.732090200006018987e-02
1.838198736499060404e-01 1.757361413054238142e+02 3.693729323959206834e+00 6.846017113744833071e-02
1.853040567580434006e-01 1.771852815471339682e+02 3.793763916906181866e+00 6.960015182469948825e-02
1.867882398661807608e-01 1.786352298413340236e+02 3.895507598317352826e+00 7.074067525898368458e-02
1.882724229743180933e-01 1.800859933596227336e+02 3.998963389014219327e+00 7.188157504322734148e-02
1.897566060824554257e-01 1.815375791834747758e+02 4.104134089155382803e+00 7.302268717879928372e-02
1.912407891905927859e-01 1.829899943046381168e+02 4.211022280803780937e+00 7.416385005737576031e-02
1.927249722987301461e-01 1.844432456255414081e+02 4.319630330482539193e+00 7.530490445199644611e-02
2.704244626599805468e-01 2.629217663477088536e+02 1.954735804463661708e+01 3.046393239323600399e-01
3.481239530212309474e-01 3.478852361182683239e+02 5.054428945314485588e+01 4.190975408384230994e-01
4.258234433824813481e-01 4.401561893420403635e+02 7.965462084106077612e+01 2.208914881639792438e-01
5.035229337437316932e-01 5.366661621538111149e+02 9.844526833552224332e+01 1.696839877615849979e-01
5.812224241049821494e-01 6.365832014380773671e+02 1.285388744138664094e+02 4.258478951928386658e-01
6.589219144662326055e-01 7.421297245385417227e+02 1.877073130539323529e+02 6.820118026240923337e-01
7.366214048274828397e-01 8.562724806880642063e+02 2.741392186096434784e+02 8.226001170761697567e-01
8.143208951887332958e-01 9.805262156742446678e+02 3.659984689526934858e+02 6.665160695516880729e-01
8.920203855499837520e-01 1.113068883432927123e+03 4.546563857353333447e+02 6.713804985993785390e-01
9.697198759112342081e-01 1.253598695978670094e+03 5.493430140261277757e+02 6.762449276470691162e-01
1.047419366272484442e+00 1.401957140376933694e+03 6.500280974861648247e+02 6.811093566947595823e-01
1.125118856633734898e+00 1.558007508372632401e+03 7.566940649034655735e+02 6.859737857424500485e-01
1.202818346994985355e+00 1.721631166651113290e+03 8.693338593645243009e+02 6.908382147901406256e-01
1.280517837356235589e+00 1.892724670393001816e+03 9.879492705887527109e+02 6.957026438378310917e-01
1.358217327717486045e+00 2.071197489480005515e+03 1.112549630558179615e+03 7.005670728855215579e-01
1.435916818078736501e+00 2.256970189524794023e+03 1.243150777324055070e+03 7.054315019332121350e-01
1.513616308439986957e+00 2.449972956981809148e+03 1.379774220619460266e+03 7.102959309809026012e-01
1.591315798801237413e+00 2.650144388910669477e+03 1.522446461916963699e+03 7.151603600285931783e-01
1.669015289162487647e+00 2.857430489311938345e+03 1.671198434463044123e+03 7.200247890762836445e-01
1.746714779523738104e+00 3.071783828829263257e+03 1.826065037761923804e+03 7.248892181239741106e-01
1.824414269884988560e+00 3.293162835179527519e+03 1.987084747305907058e+03 7.297536471716646878e-01
1.902113760246238794e+00 3.521531189311982871e+03 2.154299284902948330e+03 7.346180762193551539e-01
1.979813250607489250e+00 3.756857307907638187e+03 2.327753338283504945e+03 7.394825052670456200e-01
2.057512740968739706e+00 3.999070761582828254e+03 2.499745618709938299e+03 6.820929087856856254e-01
