# density  energy_density  pressure   sound_speed_squared  [All in nuclear units]
2.720000000000000022e-14 2.529924618736292620e-11 1.061056609100270887e-19 3.766610435412189122e-08
1.269999999999999890e-13 1.181251617980081254e-10 4.870113551826584858e-18 6.497781477172163475e-08
6.929999999999999754e-13 6.445728594625782745e-10 1.018299070687946017e-16 3.033770597342807186e-07
6.295000000000000137e-12 5.855111460395753757e-09 5.487150723824490656e-15 1.763710043904196507e-06
1.581000000000000150e-11 1.470523320212576141e-08 2.904239460150760759e-14 3.559434472327477622e-06
3.971999999999999958e-11 3.694456170323160790e-08 1.439340266754906811e-13 6.772854871245677111e-06
9.975999999999999982e-11 9.278976412613005154e-08 6.812143616221268841e-13 1.246890511177539320e-05
2.505999999999999928e-10 2.330928829758143313e-07 3.107749196951638608e-12 2.212095130576091967e-05
6.294000000000000186e-10 5.854398883216247602e-07 1.363250409771533549e-11 3.761981047239428883e-05
1.581000000000000021e-09 1.470619631082054101e-06 5.726014178088476303e-11 6.095350986710739404e-05
3.971999999999999932e-09 3.694861084648016046e-06 2.210019573374265380e-10 8.628023653304385055e-05
5.000000000000000105e-09 4.651201787816927976e-06 3.071485916280120014e-10 9.387863480799757518e-05
9.975999999999999465e-09 9.280587964640925786e-06 8.385361004129998845e-10 1.356922228656245837e-04
1.989999999999999952e-08 1.851419242998081003e-05 2.287763168863418088e-09 1.782101978513718314e-04
3.972999999999999908e-08 3.696699295748789187e-05 6.061583099087538954e-09 2.308134738384234820e-04
7.925999999999999637e-08 7.375765469301719828e-05 1.575347858094044765e-08 2.960532096713864875e-04
1.580999999999999930e-07 1.471491184379128891e-04 3.910429618672550719e-08 3.402859755131850544e-04
1.991000000000000027e-07 1.853209783927820692e-04 5.252045687899177454e-08 3.626488188833278743e-04
3.155999999999999938e-07 2.938002528823880299e-04 9.730770378831954314e-08 4.630767356912104081e-04
5.000999999999999849e-07 4.656344063839075714e-04 1.837494945860225819e-07 5.430301232045120323e-04
6.295999999999999732e-07 5.862651417037388971e-04 2.503103884558263872e-07 5.605192962670089638e-04
9.666999999999999941e-07 9.003386739730535665e-04 4.324450868778576936e-07 5.993081670211623108e-04
1.531999999999999901e-06 1.427170885631398036e-03 7.780217275717420968e-07 7.125938556504039095e-04
2.506999999999999883e-06 2.336134972129507662e-03 1.471005394641589826e-06 8.121876172121876309e-04
3.974000000000000407e-06 3.704315759716615697e-03 2.695705763844323844e-06 9.780674166779417152e-04
4.830000000000000343e-06 4.502887798316278223e-03 3.503988717694660908e-06 1.046253037768318664e-03
6.080999999999999885e-06 5.670217999231269741e-03 4.731126407333307547e-06 1.056224360839501646e-03
7.930000000000000308e-06 7.396012414119570652e-03 6.599662989063778187e-06 1.109203753630785610e-03
9.982000000000000313e-06 9.311815711689977113e-03 8.879881089227186733e-06 1.271216815433141075e-03
1.256999999999999993e-05 1.172874412604260098e-02 1.207676739913533738e-05 1.374195438212825332e-03
1.521999999999999997e-05 1.420427250933824909e-02 1.547541302213394990e-05 1.371610497379100249e-03
1.991000000000000080e-05 1.858690797761085312e-02 2.160710455847765458e-05 1.426578142835871997e-03
2.506999999999999883e-05 2.341050104039446925e-02 2.908031724375689851e-05 1.672007475975408053e-03
2.790999999999999875e-05 2.606604784714952258e-02 3.357009132255487721e-05 1.709425557744154774e-03
3.806999999999999973e-05 3.556967988784798945e-02 4.986781576435106434e-05 1.720407281314112165e-03
5.063000000000000145e-05 4.732434580343149871e-02 7.073400252905581275e-05 1.829889149838781265e-03
6.592000000000000583e-05 6.164112392498975052e-02 9.765037643900635188e-05 1.930242980462695823e-03
8.433000000000000066e-05 7.888776783401378612e-02 1.317235490470395893e-04 2.021055815200022837e-03
1.062000000000000064e-04 9.938561165478684845e-02 1.740088341640037047e-04 2.104789529260958983e-03
1.321000000000000126e-04 1.236720406455826121e-01 2.260189757651373944e-04 2.178291718403657477e-03
1.623999999999999901e-04 1.520974545104751274e-01 2.888169908545388338e-04 2.240170365918073281e-03
1.689999999999999879e-04 1.582907717069566844e-01 3.027354772999506964e-04 2.254509350360745651e-03
1.758999999999999930e-04 1.647661861691531171e-01 3.173785841705756782e-04 2.268169273277113179e-03
1.830000000000000029e-04 1.714298948183871907e-01 3.325196584577469103e-04 2.276170334580628063e-03
1.901999999999999882e-04 1.781880600978280049e-01 3.479577791899843742e-04 2.292561569242367037e-03
1.977000000000000079e-04 1.852284385240466902e-01 3.641242634600037713e-04 2.299943765467868384e-03
2.054000000000000053e-04 1.924572004474696396e-01 3.808304060475003897e-04 2.322187632288155723e-03
2.079000000000000119e-04 1.948043378760714872e-01 3.864137987380476553e-04 2.435429768083530178e-03
2.081999999999999921e-04 1.950859988578999005e-01 3.870314100985603909e-04 1.950065624557156818e-03
2.090999999999999868e-04 1.959309855029948977e-01 3.881261957135444685e-04 6.411875526909013856e-04
2.159999999999999919e-04 2.024093317906446865e-01 3.940874488768042125e-04 1.199166870571831411e-03
2.231000000000000019e-04 2.090756740932291913e-01 4.013938420547467825e-04 9.928616047829054436e-04
2.311000000000000066e-04 2.165873044433437034e-01 4.085241694843774404e-04 9.056166966301716637e-04
2.401000000000000085e-04 2.250381721984245909e-01 4.159700687886608468e-04 8.565463878902855599e-04
2.500000000000000052e-04 2.343344406330727658e-01 4.237602369176299592e-04 8.194318812157330018e-04
2.642999999999999733e-04 2.477629128650125634e-01 4.345596643180389446e-04 7.890063723638815647e-04
3.052999999999999941e-04 2.862671839140227270e-01 4.644058706720978241e-04 7.612775562167708662e-04
3.533000000000000224e-04 3.313503829113090826e-01 4.987577676308450197e-04 7.626578558207241024e-04
4.075999999999999871e-04 3.823564017794535141e-01 5.381334366106255759e-04 7.813048116943254948e-04
4.679999999999999915e-04 4.390986251953180042e-01 5.832692638200615834e-04 8.096035963157804938e-04
5.341000000000000261e-04 5.012024644415256081e-01 6.346556894078133086e-04 8.452514814113673558e-04
6.059000000000000366e-04 5.686690698184251325e-01 6.930641302632923034e-04 8.862253587289389486e-04
7.661000000000000275e-04 7.192254882508629654e-01 8.328184776562496576e-04 9.702780530519144065e-04
1.262000000000000101e-03 1.185459127778160093e+00 1.338484980802662205e-03 1.198863597978450275e-03
1.894999999999999983e-03 1.780909071169781921e+00 2.123481960401060308e-03 1.437771491635827115e-03
2.673000000000000029e-03 2.513147344746868850e+00 3.261860252001994032e-03 1.671524566936786766e-03
3.605999999999999830e-03 3.391736073717691369e+00 4.828136641022434151e-03 1.893900408978071038e-03
4.709999999999999777e-03 4.431905410739045870e+00 6.903512974832482635e-03 2.096551352830673849e-03
7.496000000000000059e-03 7.058993649504918366e+00 1.289742191321638018e-02 2.466596387205546859e-03
1.119999999999999989e-02 1.055540362104863661e+01 2.212077014004794340e-02 2.809304433764861584e-03
1.600000000000000033e-02 1.509117352747679952e+01 3.559566804390756900e-02 3.132325055719984222e-03
2.206999999999999934e-02 2.083310616724802244e+01 5.457322122755020599e-02 3.477840948757840792e-03
2.947999999999999926e-02 2.785007348564149154e+01 8.049103664263126956e-02 3.909302116317729670e-03
4.268000000000000266e-02 4.036707211535221518e+01 1.353887601042819133e-01 4.862066536253286525e-03
6.219999999999999835e-02 5.891246509830522626e+01 2.419691225623893105e-01 6.630786177272363080e-03
7.316999999999999893e-02 6.935151695866235855e+01 3.161896974764099033e-01 7.588671314871411888e-03
7.595999999999999974e-02 7.200836722020332559e+01 3.371250777904805096e-01 8.170805199905813859e-03
7.685877551020407761e-02 7.286441679244789782e+01 3.442048165975507001e-01 8.369674550585117986e-03
7.775755102040816935e-02 7.372055015023472890e+01 3.514552706744772936e-01 8.567991732198644225e-03
7.865632653061224722e-02 7.457676829594957724e+01 3.588760138386250520e-01 8.765767557689468220e-03
7.955510204081632508e-02 7.543307220425266735e+01 3.664666293773056194e-01 8.963012840000686432e-03
8.045387755102040295e-02 7.628946282312551830e+01 3.742267100358772636e-01 9.159738392075386648e-03
8.135265306122449469e-02 7.714594107487053520e+01 3.821558580066904964e-01 9.355955026856653187e-03
8.225142857142857256e-02 7.800250785706647605e+01 3.902536849188337209e-01 9.551673557287572100e-03
8.315020408163265042e-02 7.885916404348233755e+01 3.985198118286391589e-01 9.746904796311236380e-03
8.404897959183672829e-02 7.971591048495096743e+01 4.069538692109074263e-01 9.941659556870730344e-03
8.494775510204082003e-02 8.057274801020611221e+01 4.155554969508162277e-01 1.013594865190914525e-02
8.584653061224489790e-02 8.142967742668294306e+01 4.243243443364768663e-01 1.032978289436956194e-02
8.674530612244897576e-02 8.228669952128583986e+01 4.332600700521083703e-01 1.052317309719507515e-02
8.764408163265305363e-02 8.314381506112363240e+01 4.423623421717964299e-01 1.071613007332877267e-02
8.854285714285714537e-02 8.400102479421526880e+01 4.516308381538102212e-01 1.090866463571374054e-02
8.944163265306122323e-02 8.485832945016608164e+01 4.610652448354485844e-01 1.110078759729306135e-02
9.034040816326530110e-02 8.571572974081732355e+01 4.706652584283924634e-01 1.129250977100983155e-02
9.123918367346939284e-02 8.657322636086982470e+01 4.804305845145370180e-01 1.148384196980713375e-02
9.213795918367347071e-02 8.743081998848226988e+01 4.903609380422817576e-01 1.167479500662805571e-02
9.303673469387754857e-02 8.828851128584746277e+01 5.004560433232591032e-01 1.186537969441568870e-02
9.393551020408162644e-02 8.914630089974481564e+01 5.107156340294778385e-01 1.205560684611311877e-02
9.483428571428570431e-02 9.000418946207281579e+01 5.211394531908658534e-01 1.224548727466342850e-02
9.573306122448979605e-02 9.086217759036071584e+01 5.317272531931916957e-01 1.243503179300971782e-02
9.663183673469387391e-02 9.172026588826082616e+01 5.424787957763487212e-01 1.262425121409506412e-02
9.753061224489795178e-02 9.257845494602324266e+01 5.533938520329872990e-01 1.281315635086255865e-02
9.842938775510204352e-02 9.343674534095202944e+01 5.644722024074771971e-01 1.300175801625529266e-02
9.932816326530612139e-02 9.429513763784578373e+01 5.757136366951867146e-01 1.319006702321634528e-02
1.002269387755101993e-01 9.515363238942150304e+01 5.871179540420672360e-01 1.337809418468881122e-02
1.011257142857142910e-01 9.601223013672317563e+01 5.986849629445261112e-01 1.356585031361578000e-02
1.020244897959183689e-01 9.687093140951685655e+01 6.104144812495783112e-01 1.375334622294033422e-02
1.029232653061224467e-01 9.772973672667052369e+01 6.223063361552660933e-01 1.394059272560555646e-02
1.038220408163265246e-01 9.858864659652120110e+01 6.343603642113323504e-01 1.412760063455455010e-02
1.047208163265306025e-01 9.944766151723020187e+01 6.465764113201400987e-01 1.431438076273039081e-02
1.056195918367346942e-01 1.003067819771245155e+02 6.589543327378273307e-01 1.450094392307617330e-02
1.065183673469387721e-01 1.011660084550279635e+02 6.714939930756862463e-01 1.468730092853498016e-02
1.074171428571428499e-01 1.020253414205805740e+02 6.841952663017617509e-01 1.487346259204989918e-02
1.083159183673469417e-01 1.028847813345475402e+02 6.970580357426560125e-01 1.505943972656402334e-02
1.092146938775510195e-01 1.037443286491176906e+02 7.100821940855338577e-01 1.524524314502043870e-02
1.101134693877550974e-01 1.046039838081924245e+02 7.232676433803215676e-01 1.543088366036222611e-02
1.110122448979591891e-01 1.054637472476648270e+02 7.366142950420899727e-01 1.561637208553248723e-02
1.119110204081632531e-01 1.063236193956903577e+02 7.501220698536152920e-01 1.580171923347429425e-02
1.128097959183673449e-01 1.071836006729482875e+02 7.637908979681143906e-01 1.598693591713074708e-02
1.137085714285714227e-01 1.080436914928951069e+02 7.776207189121405738e-01 1.617203294944492831e-02
1.146073469387755006e-01 1.089038922620100180e+02 7.916114815886441392e-01 1.635702114335992052e-02
1.155061224489795924e-01 1.097642033800325265e+02 8.057631442801828081e-01 1.654191131181882712e-02
1.164048979591836702e-01 1.106246252401929553e+02 8.200756746522810392e-01 1.672671426776471681e-02
1.173036734693877481e-01 1.114851582294353278e+02 8.345490497569345578e-01 1.691144082414068953e-02
1.182024489795918398e-01 1.123458027286342968e+02 8.491832560362504445e-01 1.709610179388983478e-02
1.191012244897959177e-01 1.132065591128044417e+02 8.639782893262211161e-01 1.728070798995523516e-02
1.199999999999999956e-01 1.140674277513044643e+02 8.789341548606293131e-01 1.746527022527998019e-02
1.214695337287159671e-01 1.154752252571494608e+02 9.037332664043490338e-01 1.776578218911138360e-02
1.229390674574319525e-01 1.168833253461044279e+02 9.289568028872313699e-01 1.806053352863149289e-02
1.244086011861479241e-01 1.182917294259099492e+02 9.545965666528019034e-01 1.834911231577043833e-02
1.258781349148639095e-01 1.197004387707385860e+02 9.806437699232010141e-01 1.863110214329715894e-02
1.273476686435798810e-01 1.211094545189423997e+02 1.007089027706700390e+00 1.890608207994230738e-02
1.288172023722958526e-01 1.225187776708214784e+02 1.033922350634568055e+00 1.917362662317969105e-02
1.302867361010118519e-01 1.239284090864129553e+02 1.061133137725244868e+00 1.943330564974143568e-02
1.317562698297278234e-01 1.253383494832970229e+02 1.088710169073897172e+00 1.968468436386934181e-02
1.332258035584437950e-01 1.267485994344191056e+02 1.116641598465483831e+00 1.992732324332150556e-02
1.346953372871597665e-01 1.281591593659263992e+02 1.144914945909520698e+00 2.016077798314715175e-02
1.361648710158757658e-01 1.295700295550165606e+02 1.173517090094816417e+00 2.038459943724201320e-02
1.376344047445917373e-01 1.309812101277977945e+02 1.202434260762495377e+00 2.059833355768981439e-02
1.391039384733077089e-01 1.323927010571582912e+02 1.231652030995702196e+00 2.080152133189691263e-02
1.405734722020236804e-01 1.338045021606434659e+02 1.261155309424418336e+00 2.099369871752162359e-02
1.420430059307396797e-01 1.352166130983405310e+02 1.290928332343895590e+00 2.117439657519955276e-02
1.435125396594556513e-01 1.366290333707682123e+02 1.320954655745255835e+00 2.134314059906407268e-02
1.449820733881716228e-01 1.380417623167711554e+02 1.351217147256868145e+00 2.149945124505860117e-02
1.464516071168875944e-01 1.394547991114172021e+02 1.381697977995154147e+00 2.164284365703665960e-02
1.479211408456035937e-01 1.408681427638971400e+02 1.412378614323542392e+00 2.177282759064438564e-02
1.493906745743195652e-01 1.422817921154251621e+02 1.443239809518328975e+00 2.188890733497808952e-02
1.508602083030355367e-01 1.436957458371403220e+02 1.474261595340273789e+00 2.199058163200980423e-02
1.523297420317515083e-01 1.451100024280059984e+02 1.505423273510791748e+00 2.207734359377200653e-02
1.537992757604674798e-01 1.465245602127084226e+02 1.536703407091676521e+00 2.214868061729226290e-02
1.552688094891834791e-01 1.479394173395528185e+02 1.568079811767336240e+00 2.220407429726824547e-02
1.567383432178994507e-01 1.493545717783561031e+02 1.599529547028578857e+00 2.224300033647336541e-02
1.582078769466154222e-01 1.507700213183345568e+02 1.631028907257058957e+00 2.226492845388236899e-02
1.596774106753314215e-01 1.521857635659883670e+02 1.662553412709535383e+00 2.226932229050727560e-02
1.611469444040473931e-01 1.536017959429790665e+02 1.694077800401171618e+00 2.225563931293331535e-02
1.626164781327633646e-01 1.550181156840019696e+02 1.725576014887178378e+00 2.222333071454521761e-02
1.640860118614793361e-01 1.564347198346501671e+02 1.757021198942150475e+00 2.217184131443479186e-02
1.655555455901953077e-01 1.578516052492735753e+02 1.788385684136542864e+00 2.210060945398114457e-02
1.670250793189113070e-01 1.592687685888270437e+02 1.819640981309797789e+00 2.200906689109536143e-02
1.684946130476272785e-01 1.606862063187119816e+02 1.850757770939714275e+00 2.189663869212370509e-02
1.699641467763432501e-01 1.621039147066076964e+02 1.881705893407748853e+00 2.176274312140281941e-02
1.714336805050592494e-01 1.635218898202941773e+02 1.912454339160006844e+00 2.160679152846319007e-02
1.729032142337752209e-01 1.649401275254630548e+02 1.942971238763796293e+00 2.142818823287790525e-02
1.743727479624911925e-01 1.663586234835198070e+02 1.973223852859714134e+00 2.122633040675549199e-02
1.758422816912071640e-01 1.677773731493737444e+02 2.003178562009326757e+00 2.100060795487829202e-02
1.773118154199231356e-01 1.691963717692171372e+02 2.032800856438640835e+00 2.075040339248872961e-02
1.787813491486391348e-01 1.706156143782917525e+02 2.062055325677662587e+00 2.047509172072930692e-02
1.802508828773551064e-01 1.720350957986448748e+02 2.090905648096474501e+00 2.017404029974419546e-02
1.817204166060710779e-01 1.734548106368706613e+02 2.119314580338405474e+00 1.984660871945307520e-02
1.831899503347870772e-01 1.748747532818397588e+02 2.147243946650982949e+00 1.949214866801138660e-02
1.846594840635030210e-01 1.762949179024162731e+02 2.174654628115532340e+00 1.911000379797406223e-02
1.861290177922190203e-01 1.777152984451604709e+02 2.201506551776443832e+00 1.869950959018320397e-02
1.875985515209349919e-01 1.791358886320177248e+02 2.227758679671265618e+00 1.825999321540504663e-02
1.890680852496509634e-01 1.805566819579935611e+02 2.253368997763013137e+00 1.779077339374438710e-02
1.905376189783669627e-01 1.819776716888160308e+02 2.278294504776213980e+00 1.729116025187029879e-02
1.920071527070829343e-01 1.833988508585809996e+02 2.302491200938449278e+00 1.676045517809033811e-02
2.697212924477547236e-01 2.595733704479997073e+02 8.359468273080103984e+00 1.406006505755575120e-01
3.474354321884264851e-01 3.387594012849169189e+02 2.453087476035832282e+01 2.644408459730246408e-01
4.251495719290983022e-01 4.226985877602240294e+02 5.212546071579572526e+01 3.882810413704918528e-01
5.028637116697700638e-01 5.127078026407126572e+02 9.160730445757607754e+01 4.846534470486930091e-01
5.805778514104418253e-01 6.096146689965869427e+02 1.408541992446524205e+02 5.298947940002955992e-01
6.582919911511135869e-01 7.136529721147069267e+02 1.985149046863000990e+02 5.765946541334596720e-01
7.360061308917853484e-01 8.250235871591642081e+02 2.654437588715595666e+02 6.232945142666237448e-01
8.137202706324571100e-01 9.439731501963503888e+02 3.424859807395796452e+02 6.699943743997878176e-01
8.914344103731288715e-01 1.070784726898311192e+03 4.305466959034306456e+02 7.166942345329518904e-01
9.691485501138006331e-01 1.205773629153865841e+03 5.305946414526841863e+02 7.633940946661159632e-01
1.046862689854472395e+00 1.349284894093372714e+03 6.436662069187955240e+02 8.100939547992801470e-01
1.124576829595144378e+00 1.501691827917322371e+03 7.708697767368789755e+02 8.567938149324443309e-01
1.202290969335816140e+00 1.663375999295184101e+03 9.089469338881532394e+02 8.516130230755263320e-01
1.280005109076487901e+00 1.834197723793274008e+03 1.051258504411854801e+03 8.164102358609726107e-01
1.357719248817159663e+00 2.013697304770546225e+03 1.194498663167016502e+03 7.812074486464188894e-01
1.435433388557831424e+00 2.201402561510865780e+03 1.337696010368416864e+03 7.460046614318650571e-01
1.513147528298503186e+00 2.396841198164574962e+03 1.479928771260053509e+03 7.108018742173113358e-01
1.590861668039174948e+00 2.599543426763088974e+03 1.620326665515141258e+03 6.755990870027575035e-01
1.668575807779846709e+00 2.809044148592247439e+03 1.758072017301838059e+03 6.403962997882037822e-01
1.746289947520518471e+00 3.024884764999514118e+03 1.892400245148781096e+03 6.051935125736500609e-01
1.824004087261190232e+00 3.246183579228719282e+03 1.988596952621781611e+03 2.688290474016480913e-01
1.901718227001861994e+00 3.470516828287305088e+03 2.051037790374499764e+03 2.877307089086616476e-01
1.979432366742533755e+00 3.697502739953179116e+03 2.118507931160353110e+03 3.066323704156752039e-01
2.057146506483205517e+00 3.927241342354533572e+03 2.191459196938922560e+03 3.282961699493638918e-01
