# density  energy_density  pressure   sound_speed_squared  [All in nuclear units]
2.720000000000000022e-14 2.529924618736292620e-11 1.061056609100270887e-19 3.766610435412189122e-08
1.269999999999999890e-13 1.181251617980081254e-10 4.870113551826584858e-18 6.497781477172163475e-08
6.929999999999999754e-13 6.445728594625782745e-10 1.018299070687946017e-16 3.033770597342807186e-07
6.295000000000000137e-12 5.855111460395753757e-09 5.487150723824490656e-15 1.763710043904196507e-06
1.581000000000000150e-11 1.470523320212576141e-08 2.904239460150760759e-14 3.559434472327477622e-06
3.971999999999999958e-11 3.694456170323160790e-08 1.439340266754906811e-13 6.772854871245677111e-06
9.975999999999999982e-11 9.278976412613005154e-08 6.812143616221268841e-13 1.246890511177539320e-05
2.505999999999999928e-10 2.330928829758143313e-07 3.107749196951638608e-12 2.212095130576091967e-05
6.294000000000000186e-10 5.854398883216247602e-07 1.363250409771533549e-11 3.761981047239428883e-05
1.581000000000000021e-09 1.470619631082054101e-06 5.726014178088476303e-11 6.095350986710739404e-05
3.971999999999999932e-09 3.694861084648016046e-06 2.210019573374265380e-10 8.628023653304385055e-05
5.000000000000000105e-09 4.651201787816927976e-06 3.071485916280120014e-10 9.387863480799757518e-05
9.975999999999999465e-09 9.280587964640925786e-06 8.385361004129998845e-10 1.356922228656245837e-04
1.989999999999999952e-08 1.851419242998081003e-05 2.287763168863418088e-09 1.782101978513718314e-04
3.972999999999999908e-08 3.696699295748789187e-05 6.061583099087538954e-09 2.308134738384234820e-04
7.925999999999999637e-08 7.375765469301719828e-05 1.575347858094044765e-08 2.960532096713864875e-04
1.580999999999999930e-07 1.471491184379128891e-04 3.910429618672550719e-08 3.402859755131850544e-04
1.991000000000000027e-07 1.853209783927820692e-04 5.252045687899177454e-08 3.626488188833278743e-04
3.155999999999999938e-07 2.938002528823880299e-04 9.730770378831954314e-08 4.630767356912104081e-04
5.000999999999999849e-07 4.656344063839075714e-04 1.837494945860225819e-07 5.430301232045120323e-04
6.295999999999999732e-07 5.862651417037388971e-04 2.503103884558263872e-07 5.605192962670089638e-04
9.666999999999999941e-07 9.003386739730535665e-04 4.324450868778576936e-07 5.993081670211623108e-04
1.531999999999999901e-06 1.427170885631398036e-03 7.780217275717420968e-07 7.125938556504039095e-04
2.506999999999999883e-06 2.336134972129507662e-03 1.471005394641589826e-06 8.121876172121876309e-04
3.974000000000000407e-06 3.704315759716615697e-03 2.695705763844323844e-06 9.780674166779417152e-04
4.830000000000000343e-06 4.502887798316278223e-03 3.503988717694660908e-06 1.046253037768318664e-03
6.080999999999999885e-06 5.670217999231269741e-03 4.731126407333307547e-06 1.056224360839501646e-03
7.930000000000000308e-06 7.396012414119570652e-03 6.599662989063778187e-06 1.109203753630785610e-03
9.982000000000000313e-06 9.311815711689977113e-03 8.879881089227186733e-06 1.271216815433141075e-03
1.256999999999999993e-05 1.172874412604260098e-02 1.207676739913533738e-05 1.374195438212825332e-03
1.521999999999999997e-05 1.420427250933824909e-02 1.547541302213394990e-05 1.371610497379100249e-03
1.991000000000000080e-05 1.858690797761085312e-02 2.160710455847765458e-05 1.426578142835871997e-03
2.506999999999999883e-05 2.341050104039446925e-02 2.908031724375689851e-05 1.672007475975408053e-03
2.790999999999999875e-05 2.606604784714952258e-02 3.357009132255487721e-05 1.709425557744154774e-03
3.806999999999999973e-05 3.556967988784798945e-02 4.986781576435106434e-05 1.720407281314112165e-03
5.063000000000000145e-05 4.732434580343149871e-02 7.073400252905581275e-05 1.829889149838781265e-03
6.592000000000000583e-05 6.164112392498975052e-02 9.765037643900635188e-05 1.930242980462695823e-03
8.433000000000000066e-05 7.888776783401378612e-02 1.317235490470395893e-04 2.021055815200022837e-03
1.062000000000000064e-04 9.938561165478684845e-02 1.740088341640037047e-04 2.104789529260958983e-03
1.321000000000000126e-04 1.236720406455826121e-01 2.260189757651373944e-04 2.178291718403657477e-03
1.623999999999999901e-04 1.520974545104751274e-01 2.888169908545388338e-04 2.240170365918073281e-03
1.689999999999999879e-04 1.582907717069566844e-01 3.027354772999506964e-04 2.254509350360745651e-03
1.758999999999999930e-04 1.647661861691531171e-01 3.173785841705756782e-04 2.268169273277113179e-03
1.830000000000000029e-04 1.714298948183871907e-01 3.325196584577469103e-04 2.276170334580628063e-03
1.901999999999999882e-04 1.781880600978280049e-01 3.479577791899843742e-04 2.292561569242367037e-03
1.977000000000000079e-04 1.852284385240466902e-01 3.641242634600037713e-04 2.299943765467868384e-03
2.054000000000000053e-04 1.924572004474696396e-01 3.808304060475003897e-04 2.322187632288155723e-03
2.079000000000000119e-04 1.948043378760714872e-01 3.864137987380476553e-04 2.435429768083530178e-03
2.081999999999999921e-04 1.950859988578999005e-01 3.870314100985603909e-04 1.950065624557156818e-03
2.090999999999999868e-04 1.959309855029948977e-01 3.881261957135444685e-04 6.411875526909013856e-04
2.159999999999999919e-04 2.024093317906446865e-01 3.940874488768042125e-04 1.199166870571831411e-03
2.231000000000000019e-04 2.090756740932291913e-01 4.013938420547467825e-04 9.928616047829054436e-04
2.311000000000000066e-04 2.165873044433437034e-01 4.085241694843774404e-04 9.056166966301716637e-04
2.401000000000000085e-04 2.250381721984245909e-01 4.159700687886608468e-04 8.565463878902855599e-04
2.500000000000000052e-04 2.343344406330727658e-01 4.237602369176299592e-04 8.194318812157330018e-04
2.642999999999999733e-04 2.477629128650125634e-01 4.345596643180389446e-04 7.890063723638815647e-04
3.052999999999999941e-04 2.862671839140227270e-01 4.644058706720978241e-04 7.612775562167708662e-04
3.533000000000000224e-04 3.313503829113090826e-01 4.987577676308450197e-04 7.626578558207241024e-04
4.075999999999999871e-04 3.823564017794535141e-01 5.381334366106255759e-04 7.813048116943254948e-04
4.679999999999999915e-04 4.390986251953180042e-01 5.832692638200615834e-04 8.096035963157804938e-04
5.341000000000000261e-04 5.012024644415256081e-01 6.346556894078133086e-04 8.452514814113673558e-04
6.059000000000000366e-04 5.686690698184251325e-01 6.930641302632923034e-04 8.862253587289389486e-04
7.661000000000000275e-04 7.192254882508629654e-01 8.328184776562496576e-04 9.702780530519144065e-04
1.262000000000000101e-03 1.185459127778160093e+00 1.338484980802662205e-03 1.198863597978450275e-03
1.894999999999999983e-03 1.780909071169781921e+00 2.123481960401060308e-03 1.437771491635827115e-03
2.673000000000000029e-03 2.513147344746868850e+00 3.261860252001994032e-03 1.671524566936786766e-03
3.605999999999999830e-03 3.391736073717691369e+00 4.828136641022434151e-03 1.893900408978071038e-03
4.709999999999999777e-03 4.431905410739045870e+00 6.903512974832482635e-03 2.096551352830673849e-03
7.496000000000000059e-03 7.058993649504918366e+00 1.289742191321638018e-02 2.466596387205546859e-03
1.119999999999999989e-02 1.055540362104863661e+01 2.212077014004794340e-02 2.809304433764861584e-03
1.600000000000000033e-02 1.509117352747679952e+01 3.559566804390756900e-02 3.132325055719984222e-03
2.206999999999999934e-02 2.083310616724802244e+01 5.457322122755020599e-02 3.477840948757840792e-03
2.947999999999999926e-02 2.785007348564149154e+01 8.049103664263126956e-02 3.909302116317729670e-03
4.268000000000000266e-02 4.036707211535221518e+01 1.353887601042819133e-01 4.862066536253286525e-03
6.219999999999999835e-02 5.891246509830522626e+01 2.419691225623893105e-01 6.630786177272363080e-03
7.316999999999999893e-02 6.935151695866235855e+01 3.161896974764099033e-01 7.588671314871411888e-03
7.595999999999999974e-02 7.200836722020332559e+01 3.371250777904805096e-01 8.170805199905812125e-03
7.685877551020407761e-02 7.286441678249968845e+01 3.442031141351316603e-01 8.365697453772909936e-03
7.775755102040816935e-02 7.372055008443386726e+01 3.514473925614883254e-01 8.557543417223468368e-03
7.865632653061224722e-02 7.457676806545926240e+01 3.588554450952909924e-01 8.746576199898315612e-03
7.955510204081632508e-02 7.543307161648827730e+01 3.664250027386914410e-01 8.933028911438300676e-03
8.045387755102040295e-02 7.628946158378555253e+01 3.741539955335792533e-01 9.117134661484246547e-03
8.135265306122449469e-02 7.714593877268866606e+01 3.820405526301536292e-01 9.299126559676998763e-03
8.225142857142857256e-02 7.800250395116522384e+01 3.900830023602975261e-01 9.479237715657385516e-03
8.315020408163265042e-02 7.885915785321495264e+01 3.982798723153597731e-01 9.657701239066247140e-03
8.404897959183672829e-02 7.971590118212566267e+01 4.066298894279867238e-01 9.834750239544418765e-03
8.494775510204082003e-02 8.057273461359112332e+01 4.151319800576877550e-01 1.001061782673273726e-02
8.584653061224489790e-02 8.142965879869720425e+01 4.237852700798514505e-01 1.018553711027203254e-02
8.674530612244897576e-02 8.228667436678460945e+01 4.325890849779659986e-01 1.035974119980314495e-02
8.764408163265305363e-02 8.314378192819370383e+01 4.415429499388230927e-01 1.053346320496691309e-02
8.854285714285714537e-02 8.400098207689740093e+01 4.506465899505191497e-01 1.070693623540417382e-02
8.944163265306122323e-02 8.485827539302856337e+01 4.598999299030902543e-01 1.088039340075575186e-02
9.034040816326530110e-02 8.571566244530677636e+01 4.693030946916469381e-01 1.105406781066249448e-02
9.123918367346939284e-02 8.657314379336926891e+01 4.788564093218931061e-01 1.122819257476523336e-02
9.213795918367347071e-02 8.743071999001116978e+01 4.885603990179401834e-01 1.140300080270480187e-02
9.303673469387754857e-02 8.828839158333983050e+01 4.984157893323480359e-01 1.157872560412203863e-02
9.393551020408162644e-02 8.914615911884629895e+01 5.084235062583396525e-01 1.175560008865778223e-02
9.483428571428570431e-02 9.000402314139907389e+01 5.185846763441599450e-01 1.193385736595285913e-02
9.573306122448979605e-02 9.086198419716299668e+01 5.289006268095638452e-01 1.211373054564812007e-02
9.663183673469387391e-02 9.172004283544764291e+01 5.393728856644336433e-01 1.229545273738438631e-02
9.753061224489795178e-02 9.257819961048735991e+01 5.500031818295462172e-01 1.247925705080250164e-02
9.842938775510204352e-02 9.343645508315789527e+01 5.607934452595166874e-01 1.266537659554330467e-02
9.932816326530612139e-02 9.429480982263014255e+01 5.717458070679666271e-01 1.285404448124762011e-02
1.002269387755101993e-01 9.515326440796592067e+01 5.828625996549743338e-01 1.304549381755629005e-02
1.011257142857142910e-01 9.601181942965814642e+01 5.941463568368753334e-01 1.323995771411015654e-02
1.020244897959183689e-01 9.687047549111593980e+01 6.055998139784942724e-01 1.343766928055004604e-02
1.029232653061224467e-01 9.772923321010017617e+01 6.172259081279032333e-01 1.363886162651679196e-02
1.038220408163265246e-01 9.858809322010895926e+01 6.290277781538036184e-01 1.384376786165124329e-02
1.047208163265306025e-01 9.944705617171683798e+01 6.410087648856475084e-01 1.405262109559422476e-02
1.056195918367346942e-01 1.003061227338690742e+02 6.531724112566172913e-01 1.426565443798658017e-02
1.065183673469387721e-01 1.011652935951332921e+02 6.655224624495930108e-01 1.448310099846913945e-02
1.074171428571428499e-01 1.020245694649096748e+02 6.780628660462477697e-01 1.470519388668273947e-02
1.083159183673469417e-01 1.028839510746025496e+02 6.907977721794131831e-01 1.493216621226821882e-02
1.092146938775510195e-01 1.037434391787537606e+02 7.037315336888695372e-01 1.516425108486640569e-02
1.101134693877550974e-01 1.046030345561405142e+02 7.168687062807226340e-01 1.540168161411814389e-02
1.110122448979591891e-01 1.054627380108382795e+02 7.302140486905309702e-01 1.564469090966427028e-02
1.119110204081632531e-01 1.063225503732508486e+02 7.437725228503569985e-01 1.589351208114561306e-02
1.128097959183673449e-01 1.071824725011087054e+02 7.575492940599262148e-01 1.614837823820301776e-02
1.137085714285714227e-01 1.080425052804367283e+02 7.715497311620704846e-01 1.640952249047731432e-02
1.146073469387755006e-01 1.089026496264927744e+02 7.857794067226563373e-01 1.667717794760933264e-02
1.155061224489795924e-01 1.097629064846785667e+02 8.002440972151863008e-01 1.695157771923992002e-02
1.164048979591836702e-01 1.106232768314231976e+02 8.149497832102776673e-01 1.723295491500990637e-02
1.173036734693877481e-01 1.114837616750410518e+02 8.299026495702260808e-01 1.752154264456012855e-02
1.182024489795918398e-01 1.123443620565648615e+02 8.451090856488604475e-01 1.781757401753142692e-02
1.191012244897959177e-01 1.132050790505554687e+02 8.605756854969072167e-01 1.812128214356462444e-02
1.199999999999999956e-01 1.140659137658877142e+02 8.763092480730835243e-01 1.843290013230057187e-02
1.217239446403007019e-01 1.157174185425120641e+02 9.072603338221175706e-01 1.904931210148951698e-02
1.234478892806014222e-01 1.173693689821631665e+02 9.392471051671430482e-01 1.967667974583361262e-02
1.251718339209021424e-01 1.190217734560300045e+02 9.722884302692639258e-01 2.031505547034482065e-02
1.268957785612028488e-01 1.206746403654221211e+02 1.006403300349132168e+00 2.096449768869851002e-02
1.286197232015035552e-01 1.223279781422855734e+02 1.041610840375497782e+00 2.162507083324406373e-02
1.303436678418042616e-01 1.239817952498352440e+02 1.077930319795042724e+00 2.229684536266256234e-02
1.320676124821049957e-01 1.256361001832959943e+02 1.115381163300911860e+00 2.297989776737071818e-02
1.337915571224057021e-01 1.272909014707456805e+02 1.153982961637509685e+00 2.367431057275847309e-02
1.355155017627064085e-01 1.289462076740543353e+02 1.193755482439290860e+00 2.438017234034240907e-02
1.372394464030071148e-01 1.306020273899136157e+02 1.234718681101391491e+00 2.509757766691181335e-02
1.389633910433078490e-01 1.322583692509512332e+02 1.276892711680097880e+00 2.582662718173639113e-02
1.406873356836085553e-01 1.339152419269251197e+02 1.320297937821248047e+00 2.656742754189877348e-02
1.424112803239092617e-01 1.355726541259942621e+02 1.364954943714792091e+00 2.732009142581349331e-02
1.441352249642099681e-01 1.372306145960592687e+02 1.410884545073817220e+00 2.808473752498363146e-02
1.458591696045107022e-01 1.388891321261716598e+02 1.458107800136457355e+00 2.886149053404729603e-02
1.475831142448114086e-01 1.405482155480052029e+02 1.506646020689182519e+00 2.965048113915850006e-02
1.493070588851121150e-01 1.422078737373892068e+02 1.556520783110064254e+00 3.045184600474520539e-02
1.510310035254128214e-01 1.438681156158965848e+02 1.607753939430661250e+00 3.126572775868206866e-02
1.527549481657135555e-01 1.455289501524879086e+02 1.660367628415272856e+00 3.209227497591413819e-02
1.544788928060142619e-01 1.471903863652043185e+02 1.714384286656350120e+00 3.293164216056220645e-02
1.562028374463149683e-01 1.488524333229098886e+02 1.769826659684941683e+00 3.378398972654031440e-02
1.579267820866156746e-01 1.505151001470804886e+02 1.826717813095080745e+00 3.464948397671072794e-02
1.596507267269163810e-01 1.521783960136338294e+02 1.885081143681101912e+00 3.552829708060097069e-02
1.613746713672171151e-01 1.538423301548031077e+02 1.944940390586914702e+00 3.642060705070400417e-02
1.630986160075178215e-01 1.555069118610480530e+02 2.006319646466305340e+00 3.732659771738132404e-02
1.648225606478185279e-01 1.571721504830046854e+02 2.069243368653405302e+00 3.824645870238575079e-02
1.665465052881192620e-01 1.588380554334686678e+02 2.133736390342473310e+00 3.918038539101921514e-02
1.682704499284199684e-01 1.605046361894139011e+02 2.199823931776205832e+00 4.012857890293926311e-02
1.699943945687206748e-01 1.621719022940423827e+02 2.267531611441830464e+00 4.109124606162559840e-02
1.717183392090213812e-01 1.638398633588636812e+02 2.336885457274238576e+00 4.206859936251674398e-02
1.734422838493220875e-01 1.655085290658052202e+02 2.407911917865489304e+00 4.306085693982547591e-02
1.751662284896228217e-01 1.671779091693485100e+02 2.480637873680022309e+00 4.406824253203995428e-02
1.768901731299235280e-01 1.688480134986923815e+02 2.555090648274947362e+00 4.509098544611608167e-02
1.786141177702242344e-01 1.705188519599409744e+02 2.631298019524829890e+00 4.612932052036587682e-02
1.803380624105249685e-01 1.721904345383158841e+02 2.709288230850380508e+00 4.718348808604469480e-02
1.820620070508256749e-01 1.738627713003912731e+02 2.789090002450511641e+00 4.825373392763949304e-02
1.837859516911263813e-01 1.755358723963498164e+02 2.870732542537248744e+00 4.934030924185918432e-02
1.855098963314270877e-01 1.772097480622601324e+02 2.954245558572975661e+00 5.044347059532690997e-02
1.872338409717277941e-01 1.788844086223736838e+02 3.039659268509550039e+00 5.156347988097360197e-02
1.889577856120285282e-01 1.805598644914413455e+02 3.127004412028825620e+00 5.270060427313050938e-02
1.906817302523292346e-01 1.822361261770464296e+02 3.216312261784136872e+00 5.385511618131867684e-02
1.924056748926299409e-01 1.839132042819559842e+02 3.307614634642341400e+00 5.502729320273144070e-02
1.941296195329306751e-01 1.855911095064889764e+02 3.400943902925992024e+00 5.621741807340591840e-02
1.958535641732313537e-01 1.872698526508993382e+02 3.496333005655260173e+00 5.742577861807905693e-02
1.975775088135320878e-01 1.889494446177738212e+02 3.593815459789264644e+00 5.865266769872254371e-02
1.993014534538327942e-01 1.906298964144456249e+02 3.693425371466386053e+00 5.989838316175011973e-02
2.010253980941335006e-01 1.923112191554200763e+02 3.795197447243300104e+00 6.116322778389216008e-02
2.027493427344342347e-01 1.939934240648146897e+02 3.899167005332341063e+00 6.244750921672920924e-02
2.044732873747349411e-01 1.956765224788115063e+02 4.005369986836899265e+00 6.375153992987726836e-02
2.819330162038219956e-01 2.726922976988246887e+02 1.255216528547534338e+01 1.565803546615311681e-01
3.593927450329090223e-01 3.530259042400084013e+02 2.895441093665599652e+01 2.494091693931850262e-01
4.368524738619961045e-01 4.377596484563305808e+02 5.414633783631005315e+01 3.422379841248389676e-01
5.143122026910831313e-01 5.277708400324722788e+02 8.928787952776298198e+01 4.350667988564928534e-01
5.917719315201701580e-01 6.238598066562728945e+02 1.357481226746482434e+02 5.278956135881467393e-01
6.692316603492571847e-01 7.268085392721889093e+02 1.951098180563969322e+02 6.207244283198005697e-01
7.466913891783442114e-01 8.374128247157410669e+02 2.691838533379460614e+02 7.135532430514545110e-01
8.241511180074312382e-01 9.565026951712793561e+02 3.600299222894826130e+02 8.063820577831083414e-01
9.016108468365182649e-01 1.084886257318135449e+03 4.609291398247285088e+02 7.681853888151917165e-01
9.790705756656052916e-01 1.221374415627927874e+03 5.315961772619007206e+02 2.834809772436290842e-01
1.056530304494692318e+00 1.361079188624677954e+03 5.552356892234423640e+02 5.668401264079277191e-02
1.133990033323779567e+00 1.502140105566454622e+03 5.721333626495453473e+02 1.823128663043826203e-01
1.211449762152866594e+00 1.644924103464962172e+03 6.072211577812321366e+02 3.079417199679720940e-01
1.288909490981953621e+00 1.790509026589767927e+03 6.613362421648834015e+02 4.335705736315615955e-01
1.366369219811040647e+00 1.939903185579037881e+03 7.356889292334046786e+02 5.591994272951510414e-01
1.443828948640127674e+00 2.094078031443177679e+03 8.318481701116115801e+02 6.848282809587404873e-01
1.521288677469214701e+00 2.253993362826935936e+03 9.517420213845375656e+02 8.104571346223299333e-01
1.598748406298301727e+00 2.420617664515566503e+03 1.097669734380165437e+03 9.360859882859193792e-01
1.676208135127388754e+00 2.594942090721125169e+03 1.260374731049940010e+03 9.308703440015898556e-01
1.753667863956475781e+00 2.776922194265554481e+03 1.425736719423157865e+03 8.882140259549748951e-01
1.831127592785562808e+00 2.966179776611349553e+03 1.589654843742318917e+03 8.455577079083600456e-01
1.908587321614649834e+00 3.162325344188341660e+03 1.751187468432326796e+03 8.029013898617451961e-01
1.986047050443736861e+00 3.364963726003988086e+03 1.909438201659063452e+03 7.602450718151303466e-01
2.063506779272823888e+00 3.573696564194310213e+03 2.063558730689467211e+03 7.175887537685154971e-01
