# density  energy_density  pressure   sound_speed_squared  [All in nuclear units]
2.720000000000000022e-14 2.529924618736292620e-11 1.061056609100270887e-19 3.766610435412189122e-08
1.269999999999999890e-13 1.181251617980081254e-10 4.870113551826584858e-18 6.497781477172163475e-08
6.929999999999999754e-13 6.445728594625782745e-10 1.018299070687946017e-16 3.033770597342807186e-07
6.295000000000000137e-12 5.855111460395753757e-09 5.487150723824490656e-15 1.763710043904196507e-06
1.581000000000000150e-11 1.470523320212576141e-08 2.904239460150760759e-14 3.559434472327477622e-06
3.971999999999999958e-11 3.694456170323160790e-08 1.439340266754906811e-13 6.772854871245677111e-06
9.975999999999999982e-11 9.278976412613005154e-08 6.812143616221268841e-13 1.246890511177539320e-05
2.505999999999999928e-10 2.330928829758143313e-07 3.107749196951638608e-12 2.212095130576091967e-05
6.294000000000000186e-10 5.854398883216247602e-07 1.363250409771533549e-11 3.761981047239428883e-05
1.581000000000000021e-09 1.470619631082054101e-06 5.726014178088476303e-11 6.095350986710739404e-05
3.971999999999999932e-09 3.694861084648016046e-06 2.210019573374265380e-10 8.628023653304385055e-05
5.000000000000000105e-09 4.651201787816927976e-06 3.071485916280120014e-10 9.387863480799757518e-05
9.975999999999999465e-09 9.280587964640925786e-06 8.385361004129998845e-10 1.356922228656245837e-04
1.989999999999999952e-08 1.851419242998081003e-05 2.287763168863418088e-09 1.782101978513718314e-04
3.972999999999999908e-08 3.696699295748789187e-05 6.061583099087538954e-09 2.308134738384234820e-04
7.925999999999999637e-08 7.375765469301719828e-05 1.575347858094044765e-08 2.960532096713864875e-04
1.580999999999999930e-07 1.471491184379128891e-04 3.910429618672550719e-08 3.402859755131850544e-04
1.991000000000000027e-07 1.853209783927820692e-04 5.252045687899177454e-08 3.626488188833278743e-04
3.155999999999999938e-07 2.938002528823880299e-04 9.730770378831954314e-08 4.630767356912104081e-04
5.000999999999999849e-07 4.656344063839075714e-04 1.837494945860225819e-07 5.430301232045120323e-04
6.295999999999999732e-07 5.862651417037388971e-04 2.503103884558263872e-07 5.605192962670089638e-04
9.666999999999999941e-07 9.003386739730535665e-04 4.324450868778576936e-07 5.993081670211623108e-04
1.531999999999999901e-06 1.427170885631398036e-03 7.780217275717420968e-07 7.125938556504039095e-04
2.506999999999999883e-06 2.336134972129507662e-03 1.471005394641589826e-06 8.121876172121876309e-04
3.974000000000000407e-06 3.704315759716615697e-03 2.695705763844323844e-06 9.780674166779417152e-04
4.830000000000000343e-06 4.502887798316278223e-03 3.503988717694660908e-06 1.046253037768318664e-03
6.080999999999999885e-06 5.670217999231269741e-03 4.731126407333307547e-06 1.056224360839501646e-03
7.930000000000000308e-06 7.396012414119570652e-03 6.599662989063778187e-06 1.109203753630785610e-03
9.982000000000000313e-06 9.311815711689977113e-03 8.879881089227186733e-06 1.271216815433141075e-03
1.256999999999999993e-05 1.172874412604260098e-02 1.207676739913533738e-05 1.374195438212825332e-03
1.521999999999999997e-05 1.420427250933824909e-02 1.547541302213394990e-05 1.371610497379100249e-03
1.991000000000000080e-05 1.858690797761085312e-02 2.160710455847765458e-05 1.426578142835871997e-03
2.506999999999999883e-05 2.341050104039446925e-02 2.908031724375689851e-05 1.672007475975408053e-03
2.790999999999999875e-05 2.606604784714952258e-02 3.357009132255487721e-05 1.709425557744154774e-03
3.806999999999999973e-05 3.556967988784798945e-02 4.986781576435106434e-05 1.720407281314112165e-03
5.063000000000000145e-05 4.732434580343149871e-02 7.073400252905581275e-05 1.829889149838781265e-03
6.592000000000000583e-05 6.164112392498975052e-02 9.765037643900635188e-05 1.930242980462695823e-03
8.433000000000000066e-05 7.888776783401378612e-02 1.317235490470395893e-04 2.021055815200022837e-03
1.062000000000000064e-04 9.938561165478684845e-02 1.740088341640037047e-04 2.104789529260958983e-03
1.321000000000000126e-04 1.236720406455826121e-01 2.260189757651373944e-04 2.178291718403657477e-03
1.623999999999999901e-04 1.520974545104751274e-01 2.888169908545388338e-04 2.240170365918073281e-03
1.689999999999999879e-04 1.582907717069566844e-01 3.027354772999506964e-04 2.254509350360745651e-03
1.758999999999999930e-04 1.647661861691531171e-01 3.173785841705756782e-04 2.268169273277113179e-03
1.830000000000000029e-04 1.714298948183871907e-01 3.325196584577469103e-04 2.276170334580628063e-03
1.901999999999999882e-04 1.781880600978280049e-01 3.479577791899843742e-04 2.292561569242367037e-03
1.977000000000000079e-04 1.852284385240466902e-01 3.641242634600037713e-04 2.299943765467868384e-03
2.054000000000000053e-04 1.924572004474696396e-01 3.808304060475003897e-04 2.322187632288155723e-03
2.079000000000000119e-04 1.948043378760714872e-01 3.864137987380476553e-04 2.435429768083530178e-03
2.081999999999999921e-04 1.950859988578999005e-01 3.870314100985603909e-04 1.950065624557156818e-03
2.090999999999999868e-04 1.959309855029948977e-01 3.881261957135444685e-04 6.411875526909013856e-04
2.159999999999999919e-04 2.024093317906446865e-01 3.940874488768042125e-04 1.199166870571831411e-03
2.231000000000000019e-04 2.090756740932291913e-01 4.013938420547467825e-04 9.928616047829054436e-04
2.311000000000000066e-04 2.165873044433437034e-01 4.085241694843774404e-04 9.056166966301716637e-04
2.401000000000000085e-04 2.250381721984245909e-01 4.159700687886608468e-04 8.565463878902855599e-04
2.500000000000000052e-04 2.343344406330727658e-01 4.237602369176299592e-04 8.194318812157330018e-04
2.642999999999999733e-04 2.477629128650125634e-01 4.345596643180389446e-04 7.890063723638815647e-04
3.052999999999999941e-04 2.862671839140227270e-01 4.644058706720978241e-04 7.612775562167708662e-04
3.533000000000000224e-04 3.313503829113090826e-01 4.987577676308450197e-04 7.626578558207241024e-04
4.075999999999999871e-04 3.823564017794535141e-01 5.381334366106255759e-04 7.813048116943254948e-04
4.679999999999999915e-04 4.390986251953180042e-01 5.832692638200615834e-04 8.096035963157804938e-04
5.341000000000000261e-04 5.012024644415256081e-01 6.346556894078133086e-04 8.452514814113673558e-04
6.059000000000000366e-04 5.686690698184251325e-01 6.930641302632923034e-04 8.862253587289389486e-04
7.661000000000000275e-04 7.192254882508629654e-01 8.328184776562496576e-04 9.702780530519144065e-04
1.262000000000000101e-03 1.185459127778160093e+00 1.338484980802662205e-03 1.198863597978450275e-03
1.894999999999999983e-03 1.780909071169781921e+00 2.123481960401060308e-03 1.437771491635827115e-03
2.673000000000000029e-03 2.513147344746868850e+00 3.261860252001994032e-03 1.671524566936786766e-03
3.605999999999999830e-03 3.391736073717691369e+00 4.828136641022434151e-03 1.893900408978071038e-03
4.709999999999999777e-03 4.431905410739045870e+00 6.903512974832482635e-03 2.096551352830673849e-03
7.496000000000000059e-03 7.058993649504918366e+00 1.289742191321638018e-02 2.466596387205546859e-03
1.119999999999999989e-02 1.055540362104863661e+01 2.212077014004794340e-02 2.809304433764861584e-03
1.600000000000000033e-02 1.509117352747679952e+01 3.559566804390756900e-02 3.132325055719984222e-03
2.206999999999999934e-02 2.083310616724802244e+01 5.457322122755020599e-02 3.477840948757840792e-03
2.947999999999999926e-02 2.785007348564149154e+01 8.049103664263126956e-02 3.909302116317729670e-03
4.268000000000000266e-02 4.036707211535221518e+01 1.353887601042819133e-01 4.862066536253286525e-03
6.219999999999999835e-02 5.891246509830522626e+01 2.419691225623893105e-01 6.630786177272363080e-03
7.316999999999999893e-02 6.935151695866235855e+01 3.161896974764099033e-01 7.588671314871411888e-03
7.595999999999999974e-02 7.200836722020332559e+01 3.371250777904805096e-01 8.170805199905812125e-03
7.685877551020407761e-02 7.286441683946641490e+01 3.442128631045449083e-01 8.388471871848768302e-03
7.775755102040816935e-02 7.372055046259546884e+01 3.514927419020051902e-01 8.617926198925030673e-03
7.865632653061224722e-02 7.457676939636769475e+01 3.589746769710925323e-01 8.858750084292552410e-03
7.955510204081632508e-02 7.543307502953142318e+01 3.666682777029607876e-01 9.110525431109312705e-03
8.045387755102040295e-02 7.628946882603435142e+01 3.745828000570185501e-01 9.372834142533278609e-03
8.135265306122449469e-02 7.714595231855491875e+01 3.827271465230933645e-01 9.645258121722413702e-03
8.225142857142857256e-02 7.800252710231804087e+01 3.911098660790737203e-01 9.927379271834686769e-03
8.315020408163265042e-02 7.885919482918146173e+01 3.997391541428130801e-01 1.021877949602806313e-02
8.404897959183672829e-02 7.971595720197701951e+01 4.086228525172048154e-01 1.051904069746051329e-02
8.494775510204082003e-02 8.057281596909341204e+01 4.177684493274577693e-01 1.082774477929000952e-02
8.584653061224489790e-02 8.142977291928707473e+01 4.271830789497099712e-01 1.114447364467450498e-02
8.674530612244897576e-02 8.228682987671044202e+01 4.368735219302242179e-01 1.146880919677197713e-02
8.764408163265305363e-02 8.314398869614467458e+01 4.468462048944993881e-01 1.180033333874039303e-02
8.854285714285714537e-02 8.400125125842735940e+01 4.571072004457267801e-01 1.213862797373772666e-02
8.944163265306122323e-02 8.485861946606441109e+01 4.676622270520995883e-01 1.248327500492192772e-02
9.034040816326530110e-02 8.571609523901737759e+01 4.785166489225662345e-01 1.283385633545097541e-02
9.123918367346939284e-02 8.657368051065759573e+01 4.896754758706864941e-01 1.318995386848284025e-02
9.213795918367347071e-02 8.743137722387736233e+01 5.011433631663209098e-01 1.355114950717547888e-02
9.303673469387754857e-02 8.828918732735195363e+01 5.129246113749503788e-01 1.391702515468686528e-02
9.393551020408162644e-02 8.914711277194484751e+01 5.250231661844760866e-01 1.428716271417496651e-02
9.483428571428570431e-02 9.000515550724784930e+01 5.374426182194140811e-01 1.466114408879774789e-02
9.573306122448979605e-02 9.086331747825146010e+01 5.501862028424481244e-01 1.503855118171318686e-02
9.663183673469387391e-02 9.172160062213762899e+01 5.632567999433537587e-01 1.541896589607923661e-02
9.753061224489795178e-02 9.258000686519073952e+01 5.766569337153576447e-01 1.580197013505387285e-02
9.842938775510204352e-02 9.343853811981918511e+01 5.903887724190354236e-01 1.618714580179506438e-02
9.932816326530612139e-02 9.429719628168447798e+01 6.044541281338963179e-01 1.657407479946076956e-02
1.002269387755101993e-01 9.515598322693178091e+01 6.188544564978439855e-01 1.696233903120896239e-02
1.011257142857142910e-01 9.601490080951667494e+01 6.335908564347340066e-01 1.735152040019762032e-02
1.020244897959183689e-01 9.687395085862551980e+01 6.486640698702899055e-01 1.774120080958468265e-02
1.029232653061224467e-01 9.773313517618367996e+01 6.640744814366722482e-01 1.813096216252814072e-02
1.038220408163265246e-01 9.859245553444782217e+01 6.798221181660212276e-01 1.852038636218595116e-02
1.047208163265306025e-01 9.945191367367971225e+01 6.959066491733301163e-01 1.890905531171609144e-02
1.056195918367346942e-01 1.003115112998962672e+02 7.123273853290316149e-01 1.929655091427652513e-02
1.065183673469387721e-01 1.011712500826938737e+02 7.290832789217051024e-01 1.968245507302521582e-02
1.074171428571428499e-01 1.020311316531432340e+02 7.461729233113434390e-01 2.006634969112013056e-02
1.083159183673469417e-01 1.028911576017512743e+02 7.635945525736342887e-01 2.044781667171924333e-02
1.092146938775510195e-01 1.037513294764885927e+02 7.813460411357402435e-01 2.082643791798051425e-02
1.101134693877550974e-01 1.046116487808775162e+02 7.994249034040845636e-01 2.120179533306191383e-02
1.110122448979591891e-01 1.054721169721412934e+02 8.178282933846633407e-01 2.157347082012140912e-02
1.119110204081632531e-01 1.063327354594078429e+02 8.365530042964307578e-01 2.194104628231696025e-02
1.128097959183673449e-01 1.071935056019705570e+02 8.555954681783271010e-01 2.230410362280655506e-02
1.137085714285714227e-01 1.080544287075991576e+02 8.749517554905197336e-01 2.266222474474813980e-02
1.146073469387755006e-01 1.089155060309024492e+02 8.946175747104717635e-01 2.301499155129969193e-02
1.155061224489795924e-01 1.097767387717382945e+02 9.145882719244430303e-01 2.336198594561918543e-02
1.164048979591836702e-01 1.106381280736700177e+02 9.348588304150602379e-01 2.370278983086457347e-02
1.173036734693877481e-01 1.114996750224676987e+02 9.554238702456061549e-01 2.403698511019383005e-02
1.182024489795918398e-01 1.123613806446519305e+02 9.762776478416849146e-01 2.436415368676492915e-02
1.191012244897959177e-01 1.132232459060783754e+02 9.974140555709418710e-01 2.468387746373582048e-02
1.199999999999999956e-01 1.140852717105623526e+02 1.018826621321529791e+00 2.499573834426449190e-02
1.217140433631230950e-01 1.157296789615976991e+02 1.060404453839412175e+00 2.557295485124947906e-02
1.234280867262461945e-01 1.173746784821331488e+02 1.102942511612503784e+00 2.614497927243154829e-02
1.251421300893692801e-01 1.190202753257593713e+02 1.146432595219928796e+00 2.671124104337299979e-02
1.268561734524923934e-01 1.206664742888396944e+02 1.190865556278928539e+00 2.727116769438467023e-02
1.285702168156154790e-01 1.223132799080778170e+02 1.236231292046096497e+00 2.782418476900659632e-02
1.302842601787385923e-01 1.239606964581428201e+02 1.282518739861310930e+00 2.836971574053799572e-02
1.319983035418616779e-01 1.256087279493440718e+02 1.329715871434015373e+00 2.890718192670006445e-02
1.337123469049847913e-01 1.272573781253525738e+02 1.377809686971708913e+00 2.943600240250439717e-02
1.354263902681078768e-01 1.289066504609624531e+02 1.426786209150604723e+00 2.995559391138974056e-02
1.371404336312309902e-01 1.305565481598884787e+02 1.476630476928599833e+00 3.046537077467912497e-02
1.388544769943540758e-01 1.322070741525950268e+02 1.527326539200763333e+00 3.096474479939950383e-02
1.405685203574771891e-01 1.338582310941538651e+02 1.578857448297709132e+00 3.145312518449890765e-02
1.422825637206002747e-01 1.355100213621253715e+02 1.631205253327264071e+00 3.192991842548647402e-02
1.439966070837233603e-01 1.371624470544607277e+02 1.684350993359972293e+00 3.239452821751499095e-02
1.457106504468464736e-01 1.388155099874225016e+02 1.738274690459013394e+00 3.284635535691637215e-02
1.474246938099695869e-01 1.404692116935195827e+02 1.792955342555198950e+00 3.328479764119686435e-02
1.491387371730926725e-01 1.421235534194543959e+02 1.848370916167771716e+00 3.370924976749054697e-02
1.508527805362157581e-01 1.437785361240809721e+02 1.904498338971774007e+00 3.411910322946490326e-02
1.525668238993388715e-01 1.454341604763684757e+02 1.961313492212797716e+00 3.451374621266760367e-02
1.542808672624619848e-01 1.470904268533726338e+02 2.018791202969973497e+00 3.489256348829813253e-02
1.559949106255850704e-01 1.487473353382080177e+02 2.076905236268098420e+00 3.525493630538387158e-02
1.577089539887081560e-01 1.504048857180241328e+02 2.135628287039817330e+00 3.560024228133587543e-02
1.594229973518312693e-01 1.520630774819795761e+02 2.194931971938805848e+00 3.592785529085609081e-02
1.611370407149543549e-01 1.537219098192159095e+02 2.254786821004932218e+00 3.623714535316401725e-02
1.628510840780774682e-01 1.553813816168268431e+02 2.315162269182402976e+00 3.652747851750773322e-02
1.645651274412005538e-01 1.570414914578241508e+02 2.376026647691888982e+00 3.679821674692090872e-02
1.662791708043236671e-01 1.587022376190969624e+02 2.437347175257688292e+00 3.704871780018521160e-02
1.679932141674467527e-01 1.603636180693642359e+02 2.499089949190954396e+00 3.727833511195458027e-02
1.697072575305698661e-01 1.620256304671189582e+02 2.561219936330080493e+00 3.748641767099567673e-02
1.714213008936929517e-01 1.636882721585630236e+02 2.623700963839299405e+00 3.767230989649688472e-02
1.731353442568160372e-01 1.653515401755329890e+02 2.686495709866622672e+00 3.783535151239601074e-02
1.748493876199391506e-01 1.670154312334126701e+02 2.749565694062217069e+00 3.797487741967579822e-02
1.765634309830622639e-01 1.686799417290362726e+02 2.812871267958360288e+00 3.809021756657397090e-02
1.782774743461853495e-01 1.703450677385771712e+02 2.876371605212133975e+00 3.818069681665438309e-02
1.799915177093084351e-01 1.720108050154247792e+02 2.940024691712026961e+00 3.824563481468334913e-02
1.817055610724315484e-01 1.736771489880457295e+02 3.003787315549640624e+00 3.828434585025566883e-02
1.834196044355546618e-01 1.753440947578320390e+02 3.067615056857729616e+00 3.829613871911316525e-02
1.851336477986777473e-01 1.770116370969334412e+02 3.131462277515830728e+00 3.828031658209810062e-02
1.868476911618008329e-01 1.786797704460738601e+02 3.195282110724765978e+00 3.823617682168382187e-02
1.885617345249239463e-01 1.803484889123522237e+02 3.259026450451337986e+00 3.816301089602433527e-02
1.902757778880470318e-01 1.820177862670263949e+02 3.322645940744581861e+00 3.806010419046433613e-02
1.919898212511701452e-01 1.836876559432802196e+02 3.386089964924995588e+00 3.792673586645189943e-02
1.937038646142932308e-01 1.853580910339729826e+02 3.449306634648179326e+00 3.776217870779527419e-02
1.954179079774163164e-01 1.870290842893710987e+02 3.512242778844430813e+00 3.756569896420678539e-02
1.971319513405394297e-01 1.887006281148631217e+02 3.574843932535844537e+00 3.733655619207670168e-02
1.988459947036625430e-01 1.903727145686538620e+02 3.637054325532570687e+00 3.707400309242064179e-02
2.005600380667856286e-01 1.920453353594427881e+02 3.698816871009953378e+00 3.677728534594592452e-02
2.022740814299087142e-01 1.937184818440816798e+02 3.760073153968347626e+00 3.644564144518210730e-02
2.039881247930318275e-01 1.953921450252140346e+02 3.820763419577495767e+00 3.607830252362357465e-02
2.814577548992964751e-01 2.722565953008666497e+02 1.147647290723076452e+01 1.611080097668029509e-01
3.589273850055611503e-01 3.524818606498456575e+02 2.956481338353858490e+01 2.861377170099824174e-01
4.363970151118258256e-01 4.377500937845497901e+02 5.950993211349248213e+01 4.111674242531618284e-01
5.138666452180904454e-01 5.294292546475392101e+02 1.032284493839956099e+02 5.361971314963410729e-01
5.913362753243551762e-01 6.287267252090414331e+02 1.605934677127972350e+02 6.149332122823468749e-01
6.688059054306197959e-01 7.362480218143581396e+02 2.265270508371770575e+02 6.122506200601275372e-01
7.462755355368845267e-01 8.516796267117003936e+02 2.970099502880856903e+02 6.095680278379081996e-01
8.237451656431491465e-01 9.746578053401364059e+02 3.717773224395374427e+02 6.068854356156888619e-01
9.012147957494137662e-01 1.104863981693866663e+03 4.505949406489033890e+02 6.042028433934695242e-01
9.786844258556784970e-01 1.242015401983939910e+03 5.332529608067641220e+02 6.015202511712501865e-01
1.056154055961943117e+00 1.385858345426921915e+03 6.195613896023222651e+02 5.988376589490308488e-01
1.133623686068207626e+00 1.536163046117372005e+03 7.093466933331726523e+02 5.961550667268115111e-01
1.211093316174472356e+00 1.692719804066831330e+03 8.024491980307237782e+02 5.934724745045921734e-01
1.288562946280737087e+00 1.855243565244100864e+03 8.921151412559703431e+02 5.122428594282169012e-01
1.366032576387001596e+00 2.022655497364383791e+03 9.612763722417968211e+02 3.174117005878980824e-01
1.443502206493266327e+00 2.193350716193510380e+03 1.013661518870774671e+03 2.966471229139122090e-01
1.520971836599531057e+00 2.367154543272110459e+03 1.087153529128763694e+03 5.452175753134901326e-01
1.598441466705795566e+00 2.545716299834900383e+03 1.207309360616406138e+03 7.937880277130673345e-01
1.675911096812060297e+00 2.731143318779966648e+03 1.366345415756866487e+03 9.170021591097220481e-01
1.753380726918325028e+00 2.924546835440060477e+03 1.537682325097573539e+03 8.571253726150831476e-01
1.830850357024589536e+00 3.125406396793364365e+03 1.703627641372951757e+03 7.972485861204443580e-01
1.908319987130854267e+00 3.333148830687463487e+03 1.862848674256601953e+03 7.373717996258053464e-01
1.985789617237118998e+00 3.547195455920314089e+03 2.014111423113845376e+03 6.774950131311663348e-01
2.063259247343383507e+00 3.766966675716500504e+03 2.156284943670594657e+03 6.176182266365275453e-01
