# density  energy_density  pressure   sound_speed_squared  [All in nuclear units]
2.720000000000000022e-14 2.529924618736292620e-11 1.061056609100270887e-19 3.766610435412189122e-08
1.269999999999999890e-13 1.181251617980081254e-10 4.870113551826584858e-18 6.497781477172163475e-08
6.929999999999999754e-13 6.445728594625782745e-10 1.018299070687946017e-16 3.033770597342807186e-07
6.295000000000000137e-12 5.855111460395753757e-09 5.487150723824490656e-15 1.763710043904196507e-06
1.581000000000000150e-11 1.470523320212576141e-08 2.904239460150760759e-14 3.559434472327477622e-06
3.971999999999999958e-11 3.694456170323160790e-08 1.439340266754906811e-13 6.772854871245677111e-06
9.975999999999999982e-11 9.278976412613005154e-08 6.812143616221268841e-13 1.246890511177539320e-05
2.505999999999999928e-10 2.330928829758143313e-07 3.107749196951638608e-12 2.212095130576091967e-05
6.294000000000000186e-10 5.854398883216247602e-07 1.363250409771533549e-11 3.761981047239428883e-05
1.581000000000000021e-09 1.470619631082054101e-06 5.726014178088476303e-11 6.095350986710739404e-05
3.971999999999999932e-09 3.694861084648016046e-06 2.210019573374265380e-10 8.628023653304385055e-05
5.000000000000000105e-09 4.651201787816927976e-06 3.071485916280120014e-10 9.387863480799757518e-05
9.975999999999999465e-09 9.280587964640925786e-06 8.385361004129998845e-10 1.356922228656245837e-04
1.989999999999999952e-08 1.851419242998081003e-05 2.287763168863418088e-09 1.782101978513718314e-04
3.972999999999999908e-08 3.696699295748789187e-05 6.061583099087538954e-09 2.308134738384234820e-04
7.925999999999999637e-08 7.375765469301719828e-05 1.575347858094044765e-08 2.960532096713864875e-04
1.580999999999999930e-07 1.471491184379128891e-04 3.910429618672550719e-08 3.402859755131850544e-04
1.991000000000000027e-07 1.853209783927820692e-04 5.252045687899177454e-08 3.626488188833278743e-04
3.155999999999999938e-07 2.938002528823880299e-04 9.730770378831954314e-08 4.630767356912104081e-04
5.000999999999999849e-07 4.656344063839075714e-04 1.837494945860225819e-07 5.430301232045120323e-04
6.295999999999999732e-07 5.862651417037388971e-04 2.503103884558263872e-07 5.605192962670089638e-04
9.666999999999999941e-07 9.003386739730535665e-04 4.324450868778576936e-07 5.993081670211623108e-04
1.531999999999999901e-06 1.427170885631398036e-03 7.780217275717420968e-07 7.125938556504039095e-04
2.506999999999999883e-06 2.336134972129507662e-03 1.471005394641589826e-06 8.121876172121876309e-04
3.974000000000000407e-06 3.704315759716615697e-03 2.695705763844323844e-06 9.780674166779417152e-04
4.830000000000000343e-06 4.502887798316278223e-03 3.503988717694660908e-06 1.046253037768318664e-03
6.080999999999999885e-06 5.670217999231269741e-03 4.731126407333307547e-06 1.056224360839501646e-03
7.930000000000000308e-06 7.396012414119570652e-03 6.599662989063778187e-06 1.109203753630785610e-03
9.982000000000000313e-06 9.311815711689977113e-03 8.879881089227186733e-06 1.271216815433141075e-03
1.256999999999999993e-05 1.172874412604260098e-02 1.207676739913533738e-05 1.374195438212825332e-03
1.521999999999999997e-05 1.420427250933824909e-02 1.547541302213394990e-05 1.371610497379100249e-03
1.991000000000000080e-05 1.858690797761085312e-02 2.160710455847765458e-05 1.426578142835871997e-03
2.506999999999999883e-05 2.341050104039446925e-02 2.908031724375689851e-05 1.672007475975408053e-03
2.790999999999999875e-05 2.606604784714952258e-02 3.357009132255487721e-05 1.709425557744154774e-03
3.806999999999999973e-05 3.556967988784798945e-02 4.986781576435106434e-05 1.720407281314112165e-03
5.063000000000000145e-05 4.732434580343149871e-02 7.073400252905581275e-05 1.829889149838781265e-03
6.592000000000000583e-05 6.164112392498975052e-02 9.765037643900635188e-05 1.930242980462695823e-03
8.433000000000000066e-05 7.888776783401378612e-02 1.317235490470395893e-04 2.021055815200022837e-03
1.062000000000000064e-04 9.938561165478684845e-02 1.740088341640037047e-04 2.104789529260958983e-03
1.321000000000000126e-04 1.236720406455826121e-01 2.260189757651373944e-04 2.178291718403657477e-03
1.623999999999999901e-04 1.520974545104751274e-01 2.888169908545388338e-04 2.240170365918073281e-03
1.689999999999999879e-04 1.582907717069566844e-01 3.027354772999506964e-04 2.254509350360745651e-03
1.758999999999999930e-04 1.647661861691531171e-01 3.173785841705756782e-04 2.268169273277113179e-03
1.830000000000000029e-04 1.714298948183871907e-01 3.325196584577469103e-04 2.276170334580628063e-03
1.901999999999999882e-04 1.781880600978280049e-01 3.479577791899843742e-04 2.292561569242367037e-03
1.977000000000000079e-04 1.852284385240466902e-01 3.641242634600037713e-04 2.299943765467868384e-03
2.054000000000000053e-04 1.924572004474696396e-01 3.808304060475003897e-04 2.322187632288155723e-03
2.079000000000000119e-04 1.948043378760714872e-01 3.864137987380476553e-04 2.435429768083530178e-03
2.081999999999999921e-04 1.950859988578999005e-01 3.870314100985603909e-04 1.950065624557156818e-03
2.090999999999999868e-04 1.959309855029948977e-01 3.881261957135444685e-04 6.411875526909013856e-04
2.159999999999999919e-04 2.024093317906446865e-01 3.940874488768042125e-04 1.199166870571831411e-03
2.231000000000000019e-04 2.090756740932291913e-01 4.013938420547467825e-04 9.928616047829054436e-04
2.311000000000000066e-04 2.165873044433437034e-01 4.085241694843774404e-04 9.056166966301716637e-04
2.401000000000000085e-04 2.250381721984245909e-01 4.159700687886608468e-04 8.565463878902855599e-04
2.500000000000000052e-04 2.343344406330727658e-01 4.237602369176299592e-04 8.194318812157330018e-04
2.642999999999999733e-04 2.477629128650125634e-01 4.345596643180389446e-04 7.890063723638815647e-04
3.052999999999999941e-04 2.862671839140227270e-01 4.644058706720978241e-04 7.612775562167708662e-04
3.533000000000000224e-04 3.313503829113090826e-01 4.987577676308450197e-04 7.626578558207241024e-04
4.075999999999999871e-04 3.823564017794535141e-01 5.381334366106255759e-04 7.813048116943254948e-04
4.679999999999999915e-04 4.390986251953180042e-01 5.832692638200615834e-04 8.096035963157804938e-04
5.341000000000000261e-04 5.012024644415256081e-01 6.346556894078133086e-04 8.452514814113673558e-04
6.059000000000000366e-04 5.686690698184251325e-01 6.930641302632923034e-04 8.862253587289389486e-04
7.661000000000000275e-04 7.192254882508629654e-01 8.328184776562496576e-04 9.702780530519144065e-04
1.262000000000000101e-03 1.185459127778160093e+00 1.338484980802662205e-03 1.198863597978450275e-03
1.894999999999999983e-03 1.780909071169781921e+00 2.123481960401060308e-03 1.437771491635827115e-03
2.673000000000000029e-03 2.513147344746868850e+00 3.261860252001994032e-03 1.671524566936786766e-03
3.605999999999999830e-03 3.391736073717691369e+00 4.828136641022434151e-03 1.893900408978071038e-03
4.709999999999999777e-03 4.431905410739045870e+00 6.903512974832482635e-03 2.096551352830673849e-03
7.496000000000000059e-03 7.058993649504918366e+00 1.289742191321638018e-02 2.466596387205546859e-03
1.119999999999999989e-02 1.055540362104863661e+01 2.212077014004794340e-02 2.809304433764861584e-03
1.600000000000000033e-02 1.509117352747679952e+01 3.559566804390756900e-02 3.132325055719984222e-03
2.206999999999999934e-02 2.083310616724802244e+01 5.457322122755020599e-02 3.477840948757840792e-03
2.947999999999999926e-02 2.785007348564149154e+01 8.049103664263126956e-02 3.909302116317729670e-03
4.268000000000000266e-02 4.036707211535221518e+01 1.353887601042819133e-01 4.862066536253286525e-03
6.219999999999999835e-02 5.891246509830522626e+01 2.419691225623893105e-01 6.630786177272363080e-03
7.316999999999999893e-02 6.935151695866235855e+01 3.161896974764099033e-01 7.588671314871411888e-03
7.595999999999999974e-02 7.200836722020332559e+01 3.371250777904805096e-01 8.170805199905812125e-03
7.685877551020407761e-02 7.286441676590970928e+01 3.442002750551688695e-01 8.359065121424072778e-03
7.775755102040816935e-02 7.372054997413047772e+01 3.514341558614134109e-01 8.539888432091420623e-03
7.865632653061224722e-02 7.457676767645919824e+01 3.588205379249010396e-01 8.713618534647473227e-03
7.955510204081632508e-02 7.543307061649673528e+01 3.663535308456858375e-01 8.880598831831856832e-03
8.045387755102040295e-02 7.628945945613223500e+01 3.740275361888212302e-01 9.041172726384197680e-03
8.135265306122449469e-02 7.714593478154402817e+01 3.818372475757404461e-01 9.195683621044120279e-03
8.225142857142857256e-02 7.800249710893692168e+01 3.897776507851138383e-01 9.344474918551242196e-03
8.315020408163265042e-02 7.885914689002942168e+01 3.978440238620289948e-01 9.487890021645187938e-03
8.404897959183672829e-02 7.971588451730521285e+01 4.060319372344413646e-01 9.626272333065582013e-03
8.494775510204082003e-02 8.057271032904090191e+01 4.143372538359467727e-01 9.759965255552055866e-03
8.584653061224489790e-02 8.142962461412261632e+01 4.227561292340152876e-01 9.889312191844220126e-03
8.674530612244897576e-02 8.228662761666210201e+01 4.312850117629157265e-01 1.001465654468170277e-02
8.764408163265305363e-02 8.314371954042293567e+01 4.399206426606354081e-01 1.013634171680413351e-02
8.854285714285714537e-02 8.400090055306648651e+01 4.486600562091785926e-01 1.025471111095112992e-02
8.944163265306122323e-02 8.485817079022683629e+01 4.575005798776943244e-01 1.037010812986231476e-02
9.034040816326530110e-02 8.571553035942363863e+01 4.664398344679524522e-01 1.048287617627731427e-02
9.123918367346939284e-02 8.657297934382062010e+01 4.754757342617436100e-01 1.059335865293575124e-02
9.213795918367347071e-02 8.743051780583712684e+01 4.846064871698395060e-01 1.070189896257724670e-02
9.303673469387754857e-02 8.828814579062044743e+01 4.938305948822043767e-01 1.080884050794142862e-02
9.393551020408162644e-02 8.914586332938532109e+01 5.031468530191940403e-01 1.091452669176791804e-02
9.483428571428570431e-02 9.000367044262739569e+01 5.125543512835316617e-01 1.101930091679633600e-02
9.573306122448979605e-02 9.086156714321572281e+01 5.220524736128908661e-01 1.112350658576630874e-02
9.663183673469387391e-02 9.171955343937105454e+01 5.316408983329581339e-01 1.122748710141746077e-02
9.753061224489795178e-02 9.257762933753413392e+01 5.413195983108893827e-01 1.133158586648941486e-02
9.842938775510204352e-02 9.343579484513074362e+01 5.510888411091070527e-01 1.143614628372179205e-02
9.932816326530612139e-02 9.429404997323590010e+01 5.609491891394237095e-01 1.154151175585421858e-02
1.002269387755101993e-01 9.515239473914388668e+01 5.709014998175100386e-01 1.164802568562631722e-02
1.011257142857142910e-01 9.601082916884688245e+01 5.809469257177526380e-01 1.175603147577771249e-02
1.020244897959183689e-01 9.686935329942760120e+01 5.910869147285815473e-01 1.186587252904802367e-02
1.029232653061224467e-01 9.772796718136798688e+01 6.013232102083719832e-01 1.197789224817687875e-02
1.038220408163265246e-01 9.858667088077972096e+01 6.116578511420510678e-01 1.209243403590389877e-02
1.047208163265306025e-01 9.944546448155793428e+01 6.220931722985654222e-01 1.220984129496870997e-02
1.056195918367346942e-01 1.003043480874625146e+02 6.326318043893901510e-01 1.233045742811093338e-02
1.065183673469387721e-01 1.011633218241305912e+02 6.432766742282789441e-01 1.245462583807019352e-02
1.074171428571428499e-01 1.020223858410214888e+02 6.540310048924805608e-01 1.258268992758611489e-02
1.083159183673469417e-01 1.028815403132987001e+02 6.648983158856612841e-01 1.271499309939831505e-02
1.092146938775510195e-01 1.037407854436500685e+02 6.758824233027961315e-01 1.285187875624642373e-02
1.101134693877550974e-01 1.046001214640503605e+02 6.869874399973096013e-01 1.299369030087006369e-02
1.110122448979591891e-01 1.054595486374661846e+02 6.982177757507596061e-01 1.314077113600885943e-02
1.119110204081632531e-01 1.063190672595090831e+02 7.095781374453781210e-01 1.329346466440242854e-02
1.128097959183673449e-01 1.071786776600348361e+02 7.210735292397996155e-01 1.345211428879040071e-02
1.137085714285714227e-01 1.080383802046946755e+02 7.327092527483134443e-01 1.361706341191239525e-02
1.146073469387755006e-01 1.088981752964382395e+02 7.444909072240047943e-01 1.378865543650803840e-02
1.155061224489795924e-01 1.097580633769710943e+02 7.564243897461476740e-01 1.396723376531695468e-02
1.164048979591836702e-01 1.106180449281679614e+02 7.685158954122355279e-01 1.415314180107876164e-02
1.173036734693877481e-01 1.114781204734444771e+02 7.807719175350454899e-01 1.434672294653308727e-02
1.182024489795918398e-01 1.123382905790875270e+02 7.931992478451396211e-01 1.454832060441956301e-02
1.191012244897959177e-01 1.131985558555476814e+02 8.058049766992220198e-01 1.475827817747779255e-02
1.199999999999999956e-01 1.140589169586934446e+02 8.185964932947822348e-01 1.497693906844741775e-02
1.240726544954077054e-01 1.179587355124083672e+02 8.791186368062210432e-01 1.606126118499144606e-02
1.281453089908154153e-01 1.218606131269049229e+02 9.440858592253090764e-01 1.723895720996995382e-02
1.322179634862231112e-01 1.257646315413740581e+02 1.013872946409968279e+00 1.851214542702913843e-02
1.362906179816308072e-01 1.296708791402554652e+02 1.088863490816318613e+00 1.988268665429129139e-02
1.403632724770385309e-01 1.335794506069673844e+02 1.169448979678784806e+00 2.135218386937415974e-02
1.444359269724462269e-01 1.374904465914007687e+02 1.256027884141664330e+00 2.292198161716505617e-02
1.485085814678539229e-01 1.414039733892463460e+02 1.349004747984738906e+00 2.459316524639881818e-02
1.525812359632616466e-01 1.453201426315000901e+02 1.448789274690557294e+00 2.636656001480639291e-02
1.566538904586693426e-01 1.492390709827296860e+02 1.555795411687526997e+00 2.824273009727916450e-02
1.607265449540770663e-01 1.531608798468764689e+02 1.670440430674174248e+00 3.022197752693198125e-02
1.647991994494847623e-01 1.570856950795218836e+02 1.793144002988528607e+00 3.230434109500255474e-02
1.688718539448924583e-01 1.610136467056879326e+02 1.924327269034807886e+00 3.448959523207732053e-02
1.729445084403001820e-01 1.649448686423483252e+02 2.064411900819102197e+00 3.677724889009367781e-02
1.770171629357078780e-01 1.688794984249212519e+02 2.213819156678191735e+00 3.916654444186547235e-02
1.810898174311155739e-01 1.728176769370970476e+02 2.372968927312176568e+00 4.165645661245527542e-02
1.851624719265232977e-01 1.767595481434198916e+02 2.542278772253310670e+00 4.424569145453445540e-02
1.892351264219309936e-01 1.807052588240997864e+02 2.722162945921327459e+00 4.693268537789173356e-02
1.933077809173386896e-01 1.846549583115834139e+02 2.913031412430397982e+00 4.971560424145533147e-02
1.973804354127464133e-01 1.886087982284498423e+02 3.115288848325385995e+00 5.259234251455791043e-02
2.014530899081541093e-01 1.925669322262398850e+02 3.329333632436079604e+00 5.556052251269130715e-02
2.055257444035618053e-01 1.965295157248530131e+02 3.555556822048126620e+00 5.861749371165769773e-02
2.095983988989695290e-01 2.004967056521776385e+02 3.794341114599131259e+00 6.176033214282430212e-02
2.136710533943772250e-01 2.044686601836436068e+02 4.046059794118529673e+00 6.498583987112969973e-02
2.177437078897849210e-01 2.084455384814035881e+02 4.311075661640983547e+00 6.829054455657464218e-02
2.218163623851926447e-01 2.124275004328727334e+02 4.589739948835789285e+00 7.167069909916473636e-02
2.258890168806003407e-01 2.164147063883683018e+02 4.882391214110031186e+00 7.512228136666895817e-02
2.299616713760080366e-01 2.204073168976096895e+02 5.189354220461542155e+00 7.864099400412231933e-02
2.340343258714157604e-01 2.244054924448470558e+02 5.510938794380009220e+00 8.222226432375595584e-02
2.381069803668234564e-01 2.284093931824031927e+02 5.847438665121783785e+00 8.586124427399165204e-02
2.421796348622311523e-01 2.324191786624221834e+02 6.199130283717007472e+00 8.955281048631834329e-02
2.462522893576388761e-01 2.364350075666290820e+02 6.566271621107609313e+00 9.329156439929138511e-02
2.503249438530465998e-01 2.404570374339133423e+02 6.949100944862947493e+00 9.707183245958994622e-02
2.543975983484542680e-01 2.444854243855624816e+02 7.347835573977495649e+00 1.008876664010617541e-01
2.584702528438619917e-01 2.485203228479753079e+02 7.762670611323649439e+00 1.047328436040058514e-01
2.625429073392696599e-01 2.525618852727003230e+02 8.193777653413897966e+00 1.086008675386295891e-01
2.666155618346773837e-01 2.566102618536501154e+02 8.641303477222594509e+00 1.124849682987044269e-01
2.706882163300851074e-01 2.606656002413568558e+02 9.105368703929482166e+00 1.163781032339686189e-01
2.747608708254928311e-01 2.647280452541398290e+02 9.586066439578493359e+00 1.202729576928419503e-01
2.788335253209004994e-01 2.687977385860755817e+02 1.008346089279728552e+01 1.241619458905542234e-01
2.829061798163082231e-01 2.728748185116664899e+02 1.059758596989940216e+01 1.280372119219216065e-01
2.869788343117158913e-01 2.769594195871256943e+02 1.112844384789388563e+01 1.318906309427549661e-01
2.910514888071236150e-01 2.810516723482056136e+02 1.167600352616093318e+01 1.357138105493402858e-01
2.951241433025313388e-01 2.851517030045215506e+02 1.224019935781898027e+01 1.394980923916162852e-01
2.991967977979390625e-01 2.892596331303386705e+02 1.282092956211396562e+01 1.432345540626754898e-01
3.032694522933467307e-01 2.933755793518137125e+02 1.341805471950793915e+01 1.469140113150655957e-01
3.073421067887544544e-01 2.974996530307122384e+02 1.403139625153750103e+01 1.505270206631362795e-01
3.114147612841621227e-01 3.016319599446426878e+02 1.466073488795631086e+01 1.540638824403931240e-01
3.154874157795698464e-01 3.057725999638929579e+02 1.530580912417631190e+01 1.575146443915697025e-01
3.195600702749775701e-01 3.099216667249795591e+02 1.596631367258283696e+01 1.608691058908577609e-01
3.946710892489576072e-01 3.886399904844705020e+02 3.819164597355891289e+01 3.955155302213274049e-01
4.697821082229376444e-01 4.729536666776779725e+02 7.369105027000041730e+01 4.447411129756670967e-01
5.448931271969177370e-01 5.634875708195131665e+02 1.162689426607327903e+02 4.939666957300068439e-01
6.200041461708978296e-01 6.604049750658939502e+02 1.666231356118952078e+02 5.431922784843465912e-01
6.951151651448778113e-01 7.639173805199430944e+02 2.255030479153309670e+02 5.924178612386862275e-01
7.702261841188579039e-01 8.742745221239169950e+02 2.937130149159455073e+02 6.416434439930259748e-01
8.453372030928378855e-01 9.917586583231505983e+02 3.721160080617208905e+02 6.908690267473656110e-01
9.204482220668179782e-01 1.116681253561284393e+03 4.616376669592712574e+02 7.400946095017053583e-01
9.955592410407980708e-01 1.249369454537928732e+03 5.619584770514807133e+02 7.706937823289019551e-01
1.070670260014777941e+00 1.389996440552361491e+03 6.715736556423831871e+02 7.876130583475779989e-01
1.145781278988758256e+00 1.538615356746329326e+03 7.899328388538511945e+02 8.045323343662541538e-01
1.220892297962738127e+00 1.695285624796309548e+03 9.173547300567684033e+02 8.214516103849303086e-01
1.296003316936718219e+00 1.860079393065695285e+03 1.054171636378545145e+03 8.383708864036063524e-01
1.371114335910698312e+00 2.033080097959796603e+03 1.200729105617021560e+03 8.552901624222825072e-01
1.446225354884678183e+00 2.214378875242613503e+03 1.356715248471266932e+03 8.651439282243097439e-01
1.521336373858658497e+00 2.404008864895142324e+03 1.520981728135619960e+03 8.673409235124796002e-01
1.596447392832638368e+00 2.601937214460977884e+03 1.692871909099729919e+03 8.695379188006494564e-01
1.671558411806618683e+00 2.808132355024963090e+03 1.872394725271748484e+03 8.717349140888192016e-01
1.746669430780598553e+00 3.022566019732144468e+03 2.059561790918828137e+03 8.739319093769890578e-01
1.821780449754578424e+00 3.245212927262859012e+03 2.254387151602651102e+03 8.761289046651588031e-01
1.896891468728558738e+00 3.476050508018611708e+03 2.456887069339042228e+03 8.783258999533286593e-01
1.972002487702538609e+00 3.715058665787460995e+03 2.667079836129049909e+03 8.805228952414984045e-01
2.047113506676518924e+00 3.962219569113265607e+03 2.884985611196037098e+03 8.827198905296682607e-01
2.122224525650498794e+00 4.217517467712199505e+03 3.110626278174435811e+03 8.849168858178381170e-01
