# density  energy_density  pressure   sound_speed_squared  [All in nuclear units]
2.720000000000000022e-14 2.529924618736292620e-11 1.061056609100270887e-19 3.766610435412189122e-08
1.269999999999999890e-13 1.181251617980081254e-10 4.870113551826584858e-18 6.497781477172163475e-08
6.929999999999999754e-13 6.445728594625782745e-10 1.018299070687946017e-16 3.033770597342807186e-07
6.295000000000000137e-12 5.855111460395753757e-09 5.487150723824490656e-15 1.763710043904196507e-06
1.581000000000000150e-11 1.470523320212576141e-08 2.904239460150760759e-14 3.559434472327477622e-06
3.971999999999999958e-11 3.694456170323160790e-08 1.439340266754906811e-13 6.772854871245677111e-06
9.975999999999999982e-11 9.278976412613005154e-08 6.812143616221268841e-13 1.246890511177539320e-05
2.505999999999999928e-10 2.330928829758143313e-07 3.107749196951638608e-12 2.212095130576091967e-05
6.294000000000000186e-10 5.854398883216247602e-07 1.363250409771533549e-11 3.761981047239428883e-05
1.581000000000000021e-09 1.470619631082054101e-06 5.726014178088476303e-11 6.095350986710739404e-05
3.971999999999999932e-09 3.694861084648016046e-06 2.210019573374265380e-10 8.628023653304385055e-05
5.000000000000000105e-09 4.651201787816927976e-06 3.071485916280120014e-10 9.387863480799757518e-05
9.975999999999999465e-09 9.280587964640925786e-06 8.385361004129998845e-10 1.356922228656245837e-04
1.989999999999999952e-08 1.851419242998081003e-05 2.287763168863418088e-09 1.782101978513718314e-04
3.972999999999999908e-08 3.696699295748789187e-05 6.061583099087538954e-09 2.308134738384234820e-04
7.925999999999999637e-08 7.375765469301719828e-05 1.575347858094044765e-08 2.960532096713864875e-04
1.580999999999999930e-07 1.471491184379128891e-04 3.910429618672550719e-08 3.402859755131850544e-04
1.991000000000000027e-07 1.853209783927820692e-04 5.252045687899177454e-08 3.626488188833278743e-04
3.155999999999999938e-07 2.938002528823880299e-04 9.730770378831954314e-08 4.630767356912104081e-04
5.000999999999999849e-07 4.656344063839075714e-04 1.837494945860225819e-07 5.430301232045120323e-04
6.295999999999999732e-07 5.862651417037388971e-04 2.503103884558263872e-07 5.605192962670089638e-04
9.666999999999999941e-07 9.003386739730535665e-04 4.324450868778576936e-07 5.993081670211623108e-04
1.531999999999999901e-06 1.427170885631398036e-03 7.780217275717420968e-07 7.125938556504039095e-04
2.506999999999999883e-06 2.336134972129507662e-03 1.471005394641589826e-06 8.121876172121876309e-04
3.974000000000000407e-06 3.704315759716615697e-03 2.695705763844323844e-06 9.780674166779417152e-04
4.830000000000000343e-06 4.502887798316278223e-03 3.503988717694660908e-06 1.046253037768318664e-03
6.080999999999999885e-06 5.670217999231269741e-03 4.731126407333307547e-06 1.056224360839501646e-03
7.930000000000000308e-06 7.396012414119570652e-03 6.599662989063778187e-06 1.109203753630785610e-03
9.982000000000000313e-06 9.311815711689977113e-03 8.879881089227186733e-06 1.271216815433141075e-03
1.256999999999999993e-05 1.172874412604260098e-02 1.207676739913533738e-05 1.374195438212825332e-03
1.521999999999999997e-05 1.420427250933824909e-02 1.547541302213394990e-05 1.371610497379100249e-03
1.991000000000000080e-05 1.858690797761085312e-02 2.160710455847765458e-05 1.426578142835871997e-03
2.506999999999999883e-05 2.341050104039446925e-02 2.908031724375689851e-05 1.672007475975408053e-03
2.790999999999999875e-05 2.606604784714952258e-02 3.357009132255487721e-05 1.709425557744154774e-03
3.806999999999999973e-05 3.556967988784798945e-02 4.986781576435106434e-05 1.720407281314112165e-03
5.063000000000000145e-05 4.732434580343149871e-02 7.073400252905581275e-05 1.829889149838781265e-03
6.592000000000000583e-05 6.164112392498975052e-02 9.765037643900635188e-05 1.930242980462695823e-03
8.433000000000000066e-05 7.888776783401378612e-02 1.317235490470395893e-04 2.021055815200022837e-03
1.062000000000000064e-04 9.938561165478684845e-02 1.740088341640037047e-04 2.104789529260958983e-03
1.321000000000000126e-04 1.236720406455826121e-01 2.260189757651373944e-04 2.178291718403657477e-03
1.623999999999999901e-04 1.520974545104751274e-01 2.888169908545388338e-04 2.240170365918073281e-03
1.689999999999999879e-04 1.582907717069566844e-01 3.027354772999506964e-04 2.254509350360745651e-03
1.758999999999999930e-04 1.647661861691531171e-01 3.173785841705756782e-04 2.268169273277113179e-03
1.830000000000000029e-04 1.714298948183871907e-01 3.325196584577469103e-04 2.276170334580628063e-03
1.901999999999999882e-04 1.781880600978280049e-01 3.479577791899843742e-04 2.292561569242367037e-03
1.977000000000000079e-04 1.852284385240466902e-01 3.641242634600037713e-04 2.299943765467868384e-03
2.054000000000000053e-04 1.924572004474696396e-01 3.808304060475003897e-04 2.322187632288155723e-03
2.079000000000000119e-04 1.948043378760714872e-01 3.864137987380476553e-04 2.435429768083530178e-03
2.081999999999999921e-04 1.950859988578999005e-01 3.870314100985603909e-04 1.950065624557156818e-03
2.090999999999999868e-04 1.959309855029948977e-01 3.881261957135444685e-04 6.411875526909013856e-04
2.159999999999999919e-04 2.024093317906446865e-01 3.940874488768042125e-04 1.199166870571831411e-03
2.231000000000000019e-04 2.090756740932291913e-01 4.013938420547467825e-04 9.928616047829054436e-04
2.311000000000000066e-04 2.165873044433437034e-01 4.085241694843774404e-04 9.056166966301716637e-04
2.401000000000000085e-04 2.250381721984245909e-01 4.159700687886608468e-04 8.565463878902855599e-04
2.500000000000000052e-04 2.343344406330727658e-01 4.237602369176299592e-04 8.194318812157330018e-04
2.642999999999999733e-04 2.477629128650125634e-01 4.345596643180389446e-04 7.890063723638815647e-04
3.052999999999999941e-04 2.862671839140227270e-01 4.644058706720978241e-04 7.612775562167708662e-04
3.533000000000000224e-04 3.313503829113090826e-01 4.987577676308450197e-04 7.626578558207241024e-04
4.075999999999999871e-04 3.823564017794535141e-01 5.381334366106255759e-04 7.813048116943254948e-04
4.679999999999999915e-04 4.390986251953180042e-01 5.832692638200615834e-04 8.096035963157804938e-04
5.341000000000000261e-04 5.012024644415256081e-01 6.346556894078133086e-04 8.452514814113673558e-04
6.059000000000000366e-04 5.686690698184251325e-01 6.930641302632923034e-04 8.862253587289389486e-04
7.661000000000000275e-04 7.192254882508629654e-01 8.328184776562496576e-04 9.702780530519144065e-04
1.262000000000000101e-03 1.185459127778160093e+00 1.338484980802662205e-03 1.198863597978450275e-03
1.894999999999999983e-03 1.780909071169781921e+00 2.123481960401060308e-03 1.437771491635827115e-03
2.673000000000000029e-03 2.513147344746868850e+00 3.261860252001994032e-03 1.671524566936786766e-03
3.605999999999999830e-03 3.391736073717691369e+00 4.828136641022434151e-03 1.893900408978071038e-03
4.709999999999999777e-03 4.431905410739045870e+00 6.903512974832482635e-03 2.096551352830673849e-03
7.496000000000000059e-03 7.058993649504918366e+00 1.289742191321638018e-02 2.466596387205546859e-03
1.119999999999999989e-02 1.055540362104863661e+01 2.212077014004794340e-02 2.809304433764861584e-03
1.600000000000000033e-02 1.509117352747679952e+01 3.559566804390756900e-02 3.132325055719984222e-03
2.206999999999999934e-02 2.083310616724802244e+01 5.457322122755020599e-02 3.477840948757840792e-03
2.947999999999999926e-02 2.785007348564149154e+01 8.049103664263126956e-02 3.909302116317729670e-03
4.268000000000000266e-02 4.036707211535221518e+01 1.353887601042819133e-01 4.862066536253286525e-03
6.219999999999999835e-02 5.891246509830522626e+01 2.419691225623893105e-01 6.630786177272363080e-03
7.316999999999999893e-02 6.935151695866235855e+01 3.161896974764099033e-01 7.588671314871411888e-03
7.595999999999999974e-02 7.200836722020332559e+01 3.371250777904805096e-01 8.170805199905813859e-03
7.685877551020407761e-02 7.286441686810634621e+01 3.442177644707901107e-01 8.399921876132495843e-03
7.775755102040816935e-02 7.372055065237050542e+01 3.515154818496878386e-01 8.648144451261800467e-03
7.865632653061224722e-02 7.457677006268538378e+01 3.590342554555509547e-01 8.914570049260130830e-03
7.955510204081632508e-02 7.543307673346461684e+01 3.667893449308738951e-01 9.198295794093917788e-03
8.045387755102040295e-02 7.628947243028640912e+01 3.747952439208480091e-01 9.498418809729574849e-03
8.135265306122449469e-02 7.714595903693924583e+01 3.830656799565794191e-01 9.814036220133527666e-03
8.225142857142857256e-02 7.800253854303883827e+01 3.916136143281044868e-01 1.014424514927218107e-02
8.315020408163265042e-02 7.885921303218438538e+01 4.004512419429177572e-01 1.048814272111195899e-02
8.404897959183672829e-02 7.971598467062578663e+01 4.095899911662350124e-01 1.084482605961928185e-02
8.494775510204082003e-02 8.057285569641348388e+01 4.190405236396964050e-01 1.121339228876057359e-02
8.584653061224489790e-02 8.142982840900587860e+01 4.288127340756548445e-01 1.159293853250223383e-02
8.674530612244897576e-02 8.228690515930932747e+01 4.389157500246137489e-01 1.198256191481069516e-02
8.764408163265305363e-02 8.314408834012844807e+01 4.493579316137595314e-01 1.238135955965237456e-02
8.854285714285714537e-02 8.400138037700547500e+01 4.601468712549004469e-01 1.278842859099369247e-02
8.944163265306122323e-02 8.485878371942825993e+01 4.712893933204572727e-01 1.320286613280105721e-02
9.034040816326530110e-02 8.571630083238864017e+01 4.827915537864709838e-01 1.362376930904089616e-02
9.123918367346939284e-02 8.657393418827234655e+01 4.946586398418831299e-01 1.405023524367962108e-02
9.213795918367347071e-02 8.743168625906521640e+01 5.068951694636258942e-01 1.448136106068365937e-02
9.303673469387754857e-02 8.828955950885870152e+01 5.195048909573187768e-01 1.491624388401941587e-02
9.393551020408162644e-02 8.914755638664072990e+01 5.324907824636091469e-01 1.535398083765331795e-02
9.483428571428570431e-02 9.000567931935712807e+01 5.458550514304272294e-01 1.579366904555177739e-02
9.573306122448979605e-02 9.086393070523145354e+01 5.595991340516391910e-01 1.623440563168122505e-02
9.663183673469387391e-02 9.172231290732973719e+01 5.737236946727860554e-01 1.667528772000806750e-02
9.753061224489795178e-02 9.258082824735978988e+01 5.882286251647885766e-01 1.711541243449872518e-02
9.842938775510204352e-02 9.343947899969184334e+01 6.031130442666743363e-01 1.755387689911962548e-02
9.932816326530612139e-02 9.429826738559309263e+01 6.183752968985571918e-01 1.798977823783716457e-02
1.002269387755101993e-01 9.515719556766288179e+01 6.340129534462617400e-01 1.842221357461778369e-02
1.011257142857142910e-01 9.601626564446252132e+01 6.500228090191296770e-01 1.885028003342789291e-02
1.020244897959183689e-01 9.687547964532791411e+01 6.664008826826962606e-01 1.927307473823390571e-02
1.029232653061224467e-01 9.773483952535919173e+01 6.831424166680606369e-01 1.968969481300223909e-02
1.038220408163265246e-01 9.859434716057789672e+01 7.002418755598954769e-01 2.009923738169932389e-02
1.047208163265306025e-01 9.945400434324450600e+01 7.176929454651739260e-01 2.050079956829156322e-02
1.056195918367346942e-01 1.003138127773300994e+02 7.354885331648008950e-01 2.089347849674538793e-02
1.065183673469387721e-01 1.011737740741341867e+02 7.536207652504476329e-01 2.127637129102721153e-02
1.074171428571428499e-01 1.020338897480439044e+02 7.720809872489984294e-01 2.164857507510344753e-02
1.083159183673469417e-01 1.028941612124267948e+02 7.908597627371093397e-01 2.200918697294051984e-02
1.092146938775510195e-01 1.037545897756535851e+02 8.099468724484805149e-01 2.235730410850484892e-02
1.101134693877550974e-01 1.046151766372432945e+02 8.293313133765362055e-01 2.269202360576284133e-02
1.110122448979591891e-01 1.054759228841281953e+02 8.490012978752841111e-01 2.301244258868093140e-02
1.119110204081632531e-01 1.063368294870316930e+02 8.689442527612160072e-01 2.331765818122551528e-02
1.128097959183673449e-01 1.071978972969548636e+02 8.891468184191936297e-01 2.360676750736303425e-02
1.137085714285714227e-01 1.080591270417692300e+02 9.095948479153204147e-01 2.387886769105989487e-02
1.146073469387755006e-01 1.089205193229091435e+02 9.302734061199017246e-01 2.413305585628251759e-02
1.155061224489795924e-01 1.097820746121612103e+02 9.511667688436352686e-01 2.436842912699731939e-02
1.164048979591836702e-01 1.106437932485476239e+02 9.722584219902564717e-01 2.458408462717072418e-02
1.173036734693877481e-01 1.115056754352989543e+02 9.935310607289267182e-01 2.477911948076913506e-02
1.182024489795918398e-01 1.123677212369128142e+02 1.014966588689701021e+00 2.495263081175899331e-02
1.191012244897959177e-01 1.132299305762967663e+02 1.036546117185480398e+00 2.510371574410669507e-02
1.199999999999999956e-01 1.140923032319919912e+02 1.058249964463908732e+00 2.523147140177867120e-02
1.234919251042962407e-01 1.174443394682719060e+02 1.143411522858996499e+00 2.558032309376456412e-02
1.269838502085924858e-01 1.207988018556077066e+02 1.229841885239646659e+00 2.595119962512401623e-02
1.304757753128887587e-01 1.241556596184088335e+02 1.317618853273884394e+00 2.634584351661194146e-02
1.339677004171850039e-01 1.275148857895462697e+02 1.406826079461547474e+00 2.676585857504750962e-02
1.374596255214812490e-01 1.308764570591797565e+02 1.497552618521643675e+00 2.721271213035932404e-02
1.409515506257775219e-01 1.342403536276304408e+02 1.589892484891069602e+00 2.768773719951030804e-02
1.444434757300737671e-01 1.376065590619469674e+02 1.683944216225780721e+00 2.819213458339133588e-02
1.479354008343700122e-01 1.409750601558616552e+02 1.779810442793918535e+00 2.872697490354041497e-02
1.514273259386662573e-01 1.443458467928760456e+02 1.877597462653021410e+00 2.929320058616998249e-02
1.549192510429625025e-01 1.477189118122455511e+02 1.977414822509809156e+00 2.989162780148485812e-02
1.584111761472587754e-01 1.510942508776644218e+02 2.079374904170574023e+00 3.052294836666061967e-02
1.619031012515550205e-01 1.544718623484749571e+02 2.183592516502572689e+00 3.118773162114492001e-02
1.653950263558512657e-01 1.578517471532482546e+02 2.290184492841643049e+00 3.188642628315851990e-02
1.688869514601475386e-01 1.612339086655985056e+02 2.399269293798195868e+00 3.261936229642250357e-02
1.723788765644437837e-01 1.646183525821136584e+02 2.510966615432626892e+00 3.338675267623888304e-02
1.758708016687400288e-01 1.680050868022944996e+02 2.625397002791762802e+00 3.418869536411619364e-02
1.793627267730362740e-01 1.713941213104104691e+02 2.742681468820059809e+00 3.502517510016823349e-02
1.828546518773325191e-01 1.747854680591906629e+02 2.862941118682888142e+00 3.589606532253800802e-02
1.863465769816287920e-01 1.781791408552782059e+02 2.986296779564159731e+00 3.680113010311199251e-02
1.898385020859250372e-01 1.815751552463861742e+02 3.112868636026826952e+00 3.774002612880586471e-02
1.933304271902212823e-01 1.849735284101021762e+02 3.242775871052372860e+00 3.871230473772182407e-02
1.968223522945175552e-01 1.883742790442965429e+02 3.376136312904248982e+00 3.971741401951126710e-02
2.003142773988138003e-01 1.917774272590959583e+02 3.513066087990442288e+00 4.075470098932295476e-02
2.038062025031100455e-01 1.951829944703939645e+02 3.653679279931902446e+00 4.182341384478532181e-02
2.072981276074062906e-01 1.985910032948725927e+02 3.798087595076489631e+00 4.292270431555924443e-02
2.107900527117025358e-01 2.020014774465204539e+02 3.946400034732551187e+00 4.405163011511332993e-02
2.142819778159988087e-01 2.054144416346379955e+02 4.098722574432169807e+00 4.520915750451296594e-02
2.177739029202950538e-01 2.088299214633222789e+02 4.255157850571663403e+00 4.639416397818227344e-02
2.212658280245912990e-01 2.122479433324391209e+02 4.415804854816167691e+00 4.760544108179353556e-02
2.247577531288875718e-01 2.156685343400851878e+02 4.580758636696051767e+00 4.884169737266150224e-02
2.282496782331838170e-01 2.190917221865616114e+02 4.750110014865750685e+00 5.010156153327038897e-02
2.317416033374800621e-01 2.225175350798733689e+02 4.923945297540273103e+00 5.138358564883663271e-02
2.352335284417763073e-01 2.259460016427873086e+02 5.102346012671244324e+00 5.268624866010854224e-02
2.387254535460725524e-01 2.293771508214786650e+02 5.285388648473014150e+00 5.400796000292465426e-02
2.422173786503688253e-01 2.328110117958073033e+02 5.473144404960027742e+00 5.534706344638615216e-02
2.457093037546650705e-01 2.362476138912702766e+02 5.665678957209369315e+00 5.670184114184673163e-02
2.492012288589613156e-01 2.396869864926825642e+02 5.863052231117246826e+00 5.807051789527409302e-02
2.526931539632575885e-01 2.431291589596463609e+02 6.065318192474927983e+00 5.945126567588741168e-02
2.561850790675538336e-01 2.465741605438758768e+02 6.272524650248519684e+00 6.084220837431276313e-02
2.596770041718500788e-01 2.500220203084494983e+02 6.484713075007631389e+00 6.224142682381401254e-02
2.631689292761463239e-01 2.534727670490718765e+02 6.701918433510343220e+00 6.364696409843864644e-02
2.666608543804425691e-01 2.569264292174328830e+02 6.924169040515891105e+00 6.505683110214810494e-02
2.701527794847388142e-01 2.603830348467594149e+02 7.151486428961686848e+00 6.646901246316848366e-02
2.736447045890351149e-01 2.638426114796636170e+02 7.383885239707482562e+00 6.788147274787323382e-02
2.771366296933313045e-01 2.673051860983973711e+02 7.621373132116185722e+00 6.929216300848091425e-02
2.806285547976276051e-01 2.707707850576357487e+02 7.863950716807738495e+00 7.069902767868152527e-02
2.841204799019238503e-01 2.742394340199104477e+02 8.111611511988444434e+00 7.210001183097418387e-02
2.876124050062200954e-01 2.777111578938378216e+02 8.364341924823431640e+00 7.349306880897026051e-02
2.911043301105163406e-01 2.811859807752750839e+02 8.622121259382412362e+00 7.487616824714764252e-02
3.667960784756078563e-01 3.580174811379797575e+02 2.246390103422727691e+01 2.807241012398463686e-01
4.424878268406993165e-01 4.392396066444549660e+02 5.401188930604246252e+01 4.865720342325449699e-01
5.181795752057908322e-01 5.273338546425879940e+02 1.049343205922239690e+02 6.582089994548074863e-01
5.938713235708823479e-01 6.239267251055930501e+02 1.629005900494624655e+02 5.498570270703013740e-01
6.695630719359738636e-01 7.274964541875627901e+02 2.139662533116342900e+02 4.415050546857953173e-01
7.452548203010653793e-01 8.363357376549529363e+02 2.559402230318874558e+02 3.331530823012892051e-01
8.209465686661567840e-01 9.494982568330013919e+02 3.079508331902815144e+02 5.784342684564468540e-01
8.966383170312484108e-01 1.068709646076933950e+03 3.925614540172666693e+02 8.281606527549542074e-01
9.723300653963398155e-01 1.196268205858770216e+03 4.885769180918287020e+02 6.852187757631450493e-01
1.048021813761431442e+00 1.330721397037250881e+03 5.686593502854683493e+02 5.124145287430177387e-01
1.123713562126522847e+00 1.470576761983058304e+03 6.512094223980832339e+02 6.633562540465122170e-01
1.199405310491614252e+00 1.616667351107229933e+03 7.474870789143137699e+02 6.551638599100001459e-01
1.275097058856705878e+00 1.768921300916478685e+03 8.461366878053654546e+02 6.412974375671365301e-01
1.350788807221797283e+00 1.927083795457549968e+03 9.464260112064470150e+02 6.274310152242729144e-01
1.426480555586888910e+00 2.090906487476546317e+03 1.048036902134733737e+03 6.135645928814091876e-01
1.502172303951980314e+00 2.260150952646169117e+03 1.150667584451780840e+03 5.996981705385455719e-01
1.577864052317071719e+00 2.434587988571902315e+03 1.254031683494375557e+03 5.858317481956819561e-01
1.653555800682163346e+00 2.613997004486753212e+03 1.357857358582081588e+03 5.719653258528183404e-01
1.729247549047254751e+00 2.798165485100509613e+03 1.461886520309369871e+03 5.580989035099547246e-01
1.804939297412346377e+00 2.986888515757046662e+03 1.565874119228379641e+03 5.442324811670911089e-01
1.880631045777437782e+00 3.179968358789910781e+03 1.669587495286781859e+03 5.303660588242273821e-01
1.956322794142529409e+00 3.377214073027798804e+03 1.772805779473475241e+03 5.164996364813637664e-01
2.032014542507620813e+00 3.578441169974009426e+03 1.875319340727104645e+03 5.026332141385001506e-01
2.107706290872712440e+00 3.783471301398981268e+03 1.976929272407018516e+03 4.887667917956365349e-01
