# density  energy_density  pressure   sound_speed_squared  [All in nuclear units]
2.720000000000000022e-14 2.529924618736292620e-11 1.061056609100270887e-19 3.766610435412189122e-08
1.269999999999999890e-13 1.181251617980081254e-10 4.870113551826584858e-18 6.497781477172163475e-08
6.929999999999999754e-13 6.445728594625782745e-10 1.018299070687946017e-16 3.033770597342807186e-07
6.295000000000000137e-12 5.855111460395753757e-09 5.487150723824490656e-15 1.763710043904196507e-06
1.581000000000000150e-11 1.470523320212576141e-08 2.904239460150760759e-14 3.559434472327477622e-06
3.971999999999999958e-11 3.694456170323160790e-08 1.439340266754906811e-13 6.772854871245677111e-06
9.975999999999999982e-11 9.278976412613005154e-08 6.812143616221268841e-13 1.246890511177539320e-05
2.505999999999999928e-10 2.330928829758143313e-07 3.107749196951638608e-12 2.212095130576091967e-05
6.294000000000000186e-10 5.854398883216247602e-07 1.363250409771533549e-11 3.761981047239428883e-05
1.581000000000000021e-09 1.470619631082054101e-06 5.726014178088476303e-11 6.095350986710739404e-05
3.971999999999999932e-09 3.694861084648016046e-06 2.210019573374265380e-10 8.628023653304385055e-05
5.000000000000000105e-09 4.651201787816927976e-06 3.071485916280120014e-10 9.387863480799757518e-05
9.975999999999999465e-09 9.280587964640925786e-06 8.385361004129998845e-10 1.356922228656245837e-04
1.989999999999999952e-08 1.851419242998081003e-05 2.287763168863418088e-09 1.782101978513718314e-04
3.972999999999999908e-08 3.696699295748789187e-05 6.061583099087538954e-09 2.308134738384234820e-04
7.925999999999999637e-08 7.375765469301719828e-05 1.575347858094044765e-08 2.960532096713864875e-04
1.580999999999999930e-07 1.471491184379128891e-04 3.910429618672550719e-08 3.402859755131850544e-04
1.991000000000000027e-07 1.853209783927820692e-04 5.252045687899177454e-08 3.626488188833278743e-04
3.155999999999999938e-07 2.938002528823880299e-04 9.730770378831954314e-08 4.630767356912104081e-04
5.000999999999999849e-07 4.656344063839075714e-04 1.837494945860225819e-07 5.430301232045120323e-04
6.295999999999999732e-07 5.862651417037388971e-04 2.503103884558263872e-07 5.605192962670089638e-04
9.666999999999999941e-07 9.003386739730535665e-04 4.324450868778576936e-07 5.993081670211623108e-04
1.531999999999999901e-06 1.427170885631398036e-03 7.780217275717420968e-07 7.125938556504039095e-04
2.506999999999999883e-06 2.336134972129507662e-03 1.471005394641589826e-06 8.121876172121876309e-04
3.974000000000000407e-06 3.704315759716615697e-03 2.695705763844323844e-06 9.780674166779417152e-04
4.830000000000000343e-06 4.502887798316278223e-03 3.503988717694660908e-06 1.046253037768318664e-03
6.080999999999999885e-06 5.670217999231269741e-03 4.731126407333307547e-06 1.056224360839501646e-03
7.930000000000000308e-06 7.396012414119570652e-03 6.599662989063778187e-06 1.109203753630785610e-03
9.982000000000000313e-06 9.311815711689977113e-03 8.879881089227186733e-06 1.271216815433141075e-03
1.256999999999999993e-05 1.172874412604260098e-02 1.207676739913533738e-05 1.374195438212825332e-03
1.521999999999999997e-05 1.420427250933824909e-02 1.547541302213394990e-05 1.371610497379100249e-03
1.991000000000000080e-05 1.858690797761085312e-02 2.160710455847765458e-05 1.426578142835871997e-03
2.506999999999999883e-05 2.341050104039446925e-02 2.908031724375689851e-05 1.672007475975408053e-03
2.790999999999999875e-05 2.606604784714952258e-02 3.357009132255487721e-05 1.709425557744154774e-03
3.806999999999999973e-05 3.556967988784798945e-02 4.986781576435106434e-05 1.720407281314112165e-03
5.063000000000000145e-05 4.732434580343149871e-02 7.073400252905581275e-05 1.829889149838781265e-03
6.592000000000000583e-05 6.164112392498975052e-02 9.765037643900635188e-05 1.930242980462695823e-03
8.433000000000000066e-05 7.888776783401378612e-02 1.317235490470395893e-04 2.021055815200022837e-03
1.062000000000000064e-04 9.938561165478684845e-02 1.740088341640037047e-04 2.104789529260958983e-03
1.321000000000000126e-04 1.236720406455826121e-01 2.260189757651373944e-04 2.178291718403657477e-03
1.623999999999999901e-04 1.520974545104751274e-01 2.888169908545388338e-04 2.240170365918073281e-03
1.689999999999999879e-04 1.582907717069566844e-01 3.027354772999506964e-04 2.254509350360745651e-03
1.758999999999999930e-04 1.647661861691531171e-01 3.173785841705756782e-04 2.268169273277113179e-03
1.830000000000000029e-04 1.714298948183871907e-01 3.325196584577469103e-04 2.276170334580628063e-03
1.901999999999999882e-04 1.781880600978280049e-01 3.479577791899843742e-04 2.292561569242367037e-03
1.977000000000000079e-04 1.852284385240466902e-01 3.641242634600037713e-04 2.299943765467868384e-03
2.054000000000000053e-04 1.924572004474696396e-01 3.808304060475003897e-04 2.322187632288155723e-03
2.079000000000000119e-04 1.948043378760714872e-01 3.864137987380476553e-04 2.435429768083530178e-03
2.081999999999999921e-04 1.950859988578999005e-01 3.870314100985603909e-04 1.950065624557156818e-03
2.090999999999999868e-04 1.959309855029948977e-01 3.881261957135444685e-04 6.411875526909013856e-04
2.159999999999999919e-04 2.024093317906446865e-01 3.940874488768042125e-04 1.199166870571831411e-03
2.231000000000000019e-04 2.090756740932291913e-01 4.013938420547467825e-04 9.928616047829054436e-04
2.311000000000000066e-04 2.165873044433437034e-01 4.085241694843774404e-04 9.056166966301716637e-04
2.401000000000000085e-04 2.250381721984245909e-01 4.159700687886608468e-04 8.565463878902855599e-04
2.500000000000000052e-04 2.343344406330727658e-01 4.237602369176299592e-04 8.194318812157330018e-04
2.642999999999999733e-04 2.477629128650125634e-01 4.345596643180389446e-04 7.890063723638815647e-04
3.052999999999999941e-04 2.862671839140227270e-01 4.644058706720978241e-04 7.612775562167708662e-04
3.533000000000000224e-04 3.313503829113090826e-01 4.987577676308450197e-04 7.626578558207241024e-04
4.075999999999999871e-04 3.823564017794535141e-01 5.381334366106255759e-04 7.813048116943254948e-04
4.679999999999999915e-04 4.390986251953180042e-01 5.832692638200615834e-04 8.096035963157804938e-04
5.341000000000000261e-04 5.012024644415256081e-01 6.346556894078133086e-04 8.452514814113673558e-04
6.059000000000000366e-04 5.686690698184251325e-01 6.930641302632923034e-04 8.862253587289389486e-04
7.661000000000000275e-04 7.192254882508629654e-01 8.328184776562496576e-04 9.702780530519144065e-04
1.262000000000000101e-03 1.185459127778160093e+00 1.338484980802662205e-03 1.198863597978450275e-03
1.894999999999999983e-03 1.780909071169781921e+00 2.123481960401060308e-03 1.437771491635827115e-03
2.673000000000000029e-03 2.513147344746868850e+00 3.261860252001994032e-03 1.671524566936786766e-03
3.605999999999999830e-03 3.391736073717691369e+00 4.828136641022434151e-03 1.893900408978071038e-03
4.709999999999999777e-03 4.431905410739045870e+00 6.903512974832482635e-03 2.096551352830673849e-03
7.496000000000000059e-03 7.058993649504918366e+00 1.289742191321638018e-02 2.466596387205546859e-03
1.119999999999999989e-02 1.055540362104863661e+01 2.212077014004794340e-02 2.809304433764861584e-03
1.600000000000000033e-02 1.509117352747679952e+01 3.559566804390756900e-02 3.132325055719984222e-03
2.206999999999999934e-02 2.083310616724802244e+01 5.457322122755020599e-02 3.477840948757840792e-03
2.947999999999999926e-02 2.785007348564149154e+01 8.049103664263126956e-02 3.909302116317729670e-03
4.268000000000000266e-02 4.036707211535221518e+01 1.353887601042819133e-01 4.862066536253286525e-03
6.219999999999999835e-02 5.891246509830522626e+01 2.419691225623893105e-01 6.630786177272363080e-03
7.316999999999999893e-02 6.935151695866235855e+01 3.161896974764099033e-01 7.588671314871411888e-03
7.595999999999999974e-02 7.200836722020332559e+01 3.371250777904805096e-01 8.170805199905812125e-03
7.685877551020407761e-02 7.286441676322202454e+01 3.441998151160599595e-01 8.357990664484279270e-03
7.775755102040816935e-02 7.372054995652975151e+01 3.514320580407851446e-01 8.537137037135116360e-03
7.865632653061224722e-02 7.457676761561717171e+01 3.588151681831829309e-01 8.708728178189966904e-03
7.955510204081632508e-02 7.543307046382140868e+01 3.663429191370166649e-01 8.873247947980488284e-03
8.045387755102040295e-02 7.628945914010544982e+01 3.740094966098403972e-01 9.031180206838334418e-03
8.135265306122449469e-02 7.714593420649100608e+01 3.818094985742339631e-01 9.183008815095155750e-03
8.225142857142857256e-02 7.800249615516487722e+01 3.897379354300102849e-01 9.329217633082602726e-03
8.315020408163265042e-02 7.885914541527633048e+01 3.977902301758660109e-01 9.470290521132334466e-03
8.404897959183672829e-02 7.971588235944311407e+01 4.059622185891101909e-01 9.606711339575997946e-03
8.494775510204082003e-02 8.057270730997990427e+01 4.142501494122619032e-01 9.738963948745250551e-03
8.584653061224489790e-02 8.142962054486613965e+01 4.226506845454501282e-01 9.867532208971739258e-03
8.674530612244897576e-02 8.228662230346562012e+01 4.311608992436853915e-01 9.992899980587123185e-03
8.764408163265305363e-02 8.314371279201097309e+01 4.397782823181934919e-01 1.011555112392305104e-02
8.854285714285714537e-02 8.400089218886553510e+01 4.485007363411232517e-01 1.023596949931117848e-02
8.944163265306122323e-02 8.485816064957298011e+01 4.573265778530454240e-01 1.035463896708315248e-02
9.034040816326530110e-02 8.571551831170711466e+01 4.662545375727664698e-01 1.047204338757063390e-02
9.123918367346939284e-02 8.657296529952972719e+01 4.752837606090706823e-01 1.058866662110526623e-02
9.213795918367347071e-02 8.743050172846747614e+01 4.844138066740990012e-01 1.070499252801871033e-02
9.303673469387754857e-02 8.828812770941618737e+01 4.936446502981557960e-01 1.082150496864261145e-02
9.393551020408162644e-02 8.914584335288063244e+01 5.029766810458107251e-01 1.093868780330863218e-02
9.483428571428570431e-02 9.000364877295830013e+01 5.124107037332411574e-01 1.105702489234841254e-02
9.573306122448979605e-02 9.086154409117382613e+01 5.219479386468277582e-01 1.117700009609362034e-02
9.663183673469387391e-02 9.171952944017172626e+01 5.315900217630815661e-01 1.129909727487589735e-02
9.753061224489795178e-02 9.257760496727338762e+01 5.413390049700447237e-01 1.142380028902689748e-02
9.842938775510204352e-02 9.343577083790566462e+01 5.511973562903614843e-01 1.155159299887827812e-02
9.932816326530612139e-02 9.429402723890576965e+01 5.611679601062733447e-01 1.168295926476168624e-02
1.002269387755101993e-01 9.515237438170846929e+01 5.712541173868459499e-01 1.181838294700877749e-02
1.011257142857142910e-01 9.601081250542148382e+01 5.814595459177778203e-01 1.195834790595120579e-02
1.020244897959183689e-01 9.686934187979314004e+01 5.917883805341934700e-01 1.210333800192062159e-02
1.029232653061224467e-01 9.772796280807787639e+01 6.022451733568645604e-01 1.225383709524867880e-02
1.038220408163265246e-01 9.858667562980356536e+01 6.128348940323424809e-01 1.241032904626702960e-02
1.047208163265306025e-01 9.944548072344470313e+01 6.235629299775272694e-01 1.257329771530732616e-02
1.056195918367346942e-01 1.003043785090068098e+02 6.344350866292338686e-01 1.274322696270122415e-02
1.065183673469387721e-01 1.011633694505240868e+02 6.454575876993501327e-01 1.292060064878037227e-02
1.074171428571428499e-01 1.020224540584757591e+02 6.566370754362182982e-01 1.310590263387642618e-02
1.083159183673469417e-01 1.028816328921230649e+02 6.679806108928978414e-01 1.329961677832103631e-02
1.092146938775510195e-01 1.037409065617712969e+02 6.794956742030008323e-01 1.350222694244586005e-02
1.101134693877550974e-01 1.046002757309594529e+02 6.911901648648219876e-01 1.371421698658254092e-02
1.110122448979591891e-01 1.054597411185813911e+02 7.030724020345046066e-01 1.393607077106274322e-02
1.119110204081632531e-01 1.063193035009395118e+02 7.151511248290179923e-01 1.416827215621811395e-02
1.128097959183673449e-01 1.071789637137362234e+02 7.274354926397436083e-01 1.441130500238030181e-02
1.137085714285714227e-01 1.080387226540032799e+02 7.399350854574848757e-01 1.466565316988096765e-02
1.146073469387755006e-01 1.088985812819740886e+02 7.526599042097512626e-01 1.493180051905175498e-02
1.155061224489795924e-01 1.097585406228983373e+02 7.656203711111732035e-01 1.521023091022432466e-02
1.164048979591836702e-01 1.106186017688045240e+02 7.788273300279352496e-01 1.550142820373032713e-02
1.173036734693877481e-01 1.114787658802098065e+02 7.922920468571341690e-01 1.580587625990141284e-02
1.182024489795918398e-01 1.123390341877806975e+02 8.060262099219792642e-01 1.612405893906924265e-02
1.191012244897959177e-01 1.131994079939467923e+02 8.200419303837797047e-01 1.645646010156545311e-02
1.199999999999999956e-01 1.140598886744683256e+02 8.343517426716771102e-01 1.680356360772171376e-02
1.236960727195440812e-01 1.175996486767690925e+02 8.965715393661017885e-01 1.835087485071916838e-02
1.273921454390881669e-01 1.211413514160197167e+02 9.644300692257291585e-01 1.996843387020792032e-02
1.310882181586322526e-01 1.246851078305490859e+02 1.038183672440146310e+00 2.165564573312366708e-02
1.347842908781763105e-01 1.282310298147881156e+02 1.118087564303080983e+00 2.341190550060096368e-02
1.384803635977203962e-01 1.317792301098523069e+02 1.204395844972951046e+00 2.523659821605203288e-02
1.421764363172644818e-01 1.353298222060578553e+02 1.297361508045576928e+00 2.712909872000155223e-02
1.458725090368085675e-01 1.388829202557813574e+02 1.397236447325109765e+00 2.908877131950383249e-02
1.495685817563526532e-01 1.424386389952980210e+02 1.504271461273180677e+00 3.111496933696142331e-02
1.532646544758967111e-01 1.459970936744280436e+02 1.618716254699761103e+00 3.320703456065911274e-02
1.569607271954407968e-01 1.495583999929752963e+02 1.740819437333958497e+00 3.536429661721345041e-02
1.606567999149848824e-01 1.531226740430834070e+02 1.870828518980337307e+00 3.758607228433454017e-02
1.643528726345289681e-01 1.566900322567458090e+02 2.008989901027550928e+00 3.987166476073835536e-02
1.680489453540730538e-01 1.602605913578064474e+02 2.155548864131860309e+00 4.222036290867805380e-02
1.717450180736171395e-01 1.638344683178712842e+02 2.310749551949329295e+00 4.463144048334470593e-02
1.754410907931612251e-01 1.674117803156236732e+02 2.474834950837612180e+00 4.710415536228874933e-02
1.791371635127053108e-01 1.709926446990997704e+02 2.648046865491770596e+00 4.963774878700501214e-02
1.828332362322493965e-01 1.745771789505341189e+02 2.830625890518848387e+00 5.223144462789160863e-02
1.865293089517934544e-01 1.781655006534341510e+02 3.022811377993255721e+00 5.488444868291585815e-02
1.902253816713375401e-01 1.817577274615843237e+02 3.224841401069654001e+00 5.759594801949237397e-02
1.939214543908816257e-01 1.853539770697155689e+02 3.436952713762110534e+00 6.036511036828510340e-02
1.976175271104256836e-01 1.889543671856101810e+02 3.659380707028095703e+00 6.319108357688513200e-02
2.013135998299697693e-01 1.925590155034404631e+02 3.892359361323382227e+00 6.607299513057901530e-02
2.050096725495138550e-01 1.961680396781640070e+02 4.136121195819330687e+00 6.900995174671205323e-02
2.087057452690579407e-01 1.997815573008228114e+02 4.390897214497490708e+00 7.200103904845445157e-02
2.124018179886020263e-01 2.033996858746130556e+02 4.656916849357861210e+00 7.504532132310709480e-02
2.160978907081461120e-01 2.070225427916088563e+02 4.934407900996811591e+00 7.814184136942471659e-02
2.197939634276901977e-01 2.106502453100428056e+02 5.223596476828462620e+00 8.128962043779422442e-02
2.234900361472342833e-01 2.142829105320600434e+02 5.524706927239410703e+00 8.448765826648405031e-02
2.271861088667783690e-01 2.179206553818714838e+02 5.837961779981109878e+00 8.773493321657357957e-02
2.308821815863224547e-01 2.215635965842521102e+02 6.163581673116981463e+00 9.103040250758404062e-02
2.345782543058665126e-01 2.252118506433324114e+02 6.501785286852547863e+00 9.437300255526077930e-02
2.382743270254105983e-01 2.288655338216472046e+02 6.852789274586588597e+00 9.776164941240629569e-02
2.419703997449546840e-01 2.325247621194104113e+02 7.216808193529445248e+00 1.011952393131280298e-01
2.456664724644987696e-01 2.361896512539971980e+02 7.594054435241477385e+00 1.046726493203524733e-01
2.493625451840428553e-01 2.398603166396165420e+02 7.984738156449929569e+00 1.081927380759614282e-01
2.530586179035869132e-01 2.435368733671690222e+02 8.389067210506548022e+00 1.117543466524319323e-01
2.567546906231309989e-01 2.472194361842859678e+02 8.807247079850965221e+00 1.153562995044058598e-01
2.604507633426750846e-01 2.509081194755575837e+02 9.239480809846231324e+00 1.189974055181817481e-01
2.641468360622191702e-01 2.546030372429542012e+02 9.685968944353147592e+00 1.226764591567048035e-01
2.678429087817632559e-01 2.583043030864568550e+02 1.014690946340888544e+01 1.263922416972399210e-01
2.715389815013073416e-01 2.620120301849146358e+02 1.062249772337321474e+01 1.301435225585338973e-01
2.752350542208513717e-01 2.657263312771477786e+02 1.111292639990225695e+01 1.339290607139218825e-01
2.789311269403954574e-01 2.694473186433189085e+02 1.161838543410517488e+01 1.377476061864959522e-01
2.826271996599395431e-01 2.731751040866038807e+02 1.213906198223347843e+01 1.415979016221382836e-01
2.863232723794836287e-01 2.769097989151872525e+02 1.267514036924610998e+01 1.454786839359230033e-01
2.900193450990277144e-01 2.806515139246135391e+02 1.322680204658547432e+01 1.493886860271136374e-01
2.937154178185718001e-01 2.844003593805282435e+02 1.379422555449086474e+01 1.533266385577199409e-01
2.974114905381158858e-01 2.881564450018456682e+02 1.437758648916581450e+01 1.572912717893334700e-01
3.011075632576599714e-01 2.919198799443734629e+02 1.497705747510501162e+01 1.612813174727372734e-01
3.765951640075036466e-01 3.707130083848147706e+02 3.194639727351789560e+01 2.667487629737467225e-01
4.520827647573473218e-01 4.537890809567089150e+02 5.863534831294140304e+01 3.722162084747561162e-01
5.275703655071910525e-01 5.421619946469689921e+02 9.638144678688435363e+01 4.776836539757656208e-01
6.030579662570346722e-01 6.367630484261320589e+02 1.468019871958974534e+02 5.831510994767750145e-01
6.785455670068782918e-01 7.385081478310139573e+02 2.118012010934012324e+02 6.886185449777844081e-01
7.540331677567220225e-01 8.482737200943498692e+02 2.889061386841689227e+02 7.150802135946400240e-01
8.295207685065656422e-01 9.661425109946328575e+02 3.713519998317941031e+02 6.858979113164513919e-01
9.050083692564093729e-01 1.091603418011204440e+03 4.554657847472450953e+02 6.567156090382626488e-01
9.804959700062531036e-01 1.224128388209438071e+03 5.404645394118564354e+02 6.275333067600737946e-01
1.055983570756096723e+00 1.363212813594858289e+03 6.256259498858473762e+02 5.983510044818851625e-01
1.131471171505940454e+00 1.508374719489677773e+03 7.102851312569667925e+02 5.691687022036964194e-01
1.206958772255783963e+00 1.659153959370052235e+03 7.938315381338907173e+02 5.399863999255076763e-01
1.282446373005627915e+00 1.815111421848326245e+03 8.757059987327966155e+02 5.108040976473189332e-01
1.357933973755471424e+00 1.975828253517590383e+03 9.553978723929905073e+02 4.816217953691301901e-01
1.433421574505314933e+00 2.140905100078942269e+03 1.032442328948599197e+03 4.524394930909415580e-01
1.508909175255158885e+00 2.309961367295347372e+03 1.106417747478509682e+03 4.232571908127527038e-01
1.584396776005002394e+00 2.482634502710870493e+03 1.176943231377582379e+03 3.940748885345640162e-01
1.659884376754846347e+00 2.658579298649446628e+03 1.243676236328632058e+03 3.648925862563752176e-01
1.735371977504689855e+00 2.837467216705306328e+03 1.306310307536853088e+03 3.357102839781865300e-01
1.810859578254533364e+00 3.018985733720210646e+03 1.364572922470733374e+03 3.065279816999978424e-01
1.886347179004377317e+00 3.202837709085723873e+03 1.418223435305504381e+03 2.773456794218090438e-01
1.961834779754220826e+00 3.388846264420556508e+03 1.474578833373592715e+03 3.282260378688153790e-01
2.037322380504064334e+00 3.577258860471034950e+03 1.545171815163531846e+03 4.202534667853702888e-01
2.112809981253908287e+00 3.768613592336484999e+03 1.634500195508211164e+03 5.122808957019256981e-01
