# density  energy_density  pressure   sound_speed_squared  [All in nuclear units]
2.720000000000000022e-14 2.529924618736292620e-11 1.061056609100270887e-19 3.766610435412189122e-08
1.269999999999999890e-13 1.181251617980081254e-10 4.870113551826584858e-18 6.497781477172163475e-08
6.929999999999999754e-13 6.445728594625782745e-10 1.018299070687946017e-16 3.033770597342807186e-07
6.295000000000000137e-12 5.855111460395753757e-09 5.487150723824490656e-15 1.763710043904196507e-06
1.581000000000000150e-11 1.470523320212576141e-08 2.904239460150760759e-14 3.559434472327477622e-06
3.971999999999999958e-11 3.694456170323160790e-08 1.439340266754906811e-13 6.772854871245677111e-06
9.975999999999999982e-11 9.278976412613005154e-08 6.812143616221268841e-13 1.246890511177539320e-05
2.505999999999999928e-10 2.330928829758143313e-07 3.107749196951638608e-12 2.212095130576091967e-05
6.294000000000000186e-10 5.854398883216247602e-07 1.363250409771533549e-11 3.761981047239428883e-05
1.581000000000000021e-09 1.470619631082054101e-06 5.726014178088476303e-11 6.095350986710739404e-05
3.971999999999999932e-09 3.694861084648016046e-06 2.210019573374265380e-10 8.628023653304385055e-05
5.000000000000000105e-09 4.651201787816927976e-06 3.071485916280120014e-10 9.387863480799757518e-05
9.975999999999999465e-09 9.280587964640925786e-06 8.385361004129998845e-10 1.356922228656245837e-04
1.989999999999999952e-08 1.851419242998081003e-05 2.287763168863418088e-09 1.782101978513718314e-04
3.972999999999999908e-08 3.696699295748789187e-05 6.061583099087538954e-09 2.308134738384234820e-04
7.925999999999999637e-08 7.375765469301719828e-05 1.575347858094044765e-08 2.960532096713864875e-04
1.580999999999999930e-07 1.471491184379128891e-04 3.910429618672550719e-08 3.402859755131850544e-04
1.991000000000000027e-07 1.853209783927820692e-04 5.252045687899177454e-08 3.626488188833278743e-04
3.155999999999999938e-07 2.938002528823880299e-04 9.730770378831954314e-08 4.630767356912104081e-04
5.000999999999999849e-07 4.656344063839075714e-04 1.837494945860225819e-07 5.430301232045120323e-04
6.295999999999999732e-07 5.862651417037388971e-04 2.503103884558263872e-07 5.605192962670089638e-04
9.666999999999999941e-07 9.003386739730535665e-04 4.324450868778576936e-07 5.993081670211623108e-04
1.531999999999999901e-06 1.427170885631398036e-03 7.780217275717420968e-07 7.125938556504039095e-04
2.506999999999999883e-06 2.336134972129507662e-03 1.471005394641589826e-06 8.121876172121876309e-04
3.974000000000000407e-06 3.704315759716615697e-03 2.695705763844323844e-06 9.780674166779417152e-04
4.830000000000000343e-06 4.502887798316278223e-03 3.503988717694660908e-06 1.046253037768318664e-03
6.080999999999999885e-06 5.670217999231269741e-03 4.731126407333307547e-06 1.056224360839501646e-03
7.930000000000000308e-06 7.396012414119570652e-03 6.599662989063778187e-06 1.109203753630785610e-03
9.982000000000000313e-06 9.311815711689977113e-03 8.879881089227186733e-06 1.271216815433141075e-03
1.256999999999999993e-05 1.172874412604260098e-02 1.207676739913533738e-05 1.374195438212825332e-03
1.521999999999999997e-05 1.420427250933824909e-02 1.547541302213394990e-05 1.371610497379100249e-03
1.991000000000000080e-05 1.858690797761085312e-02 2.160710455847765458e-05 1.426578142835871997e-03
2.506999999999999883e-05 2.341050104039446925e-02 2.908031724375689851e-05 1.672007475975408053e-03
2.790999999999999875e-05 2.606604784714952258e-02 3.357009132255487721e-05 1.709425557744154774e-03
3.806999999999999973e-05 3.556967988784798945e-02 4.986781576435106434e-05 1.720407281314112165e-03
5.063000000000000145e-05 4.732434580343149871e-02 7.073400252905581275e-05 1.829889149838781265e-03
6.592000000000000583e-05 6.164112392498975052e-02 9.765037643900635188e-05 1.930242980462695823e-03
8.433000000000000066e-05 7.888776783401378612e-02 1.317235490470395893e-04 2.021055815200022837e-03
1.062000000000000064e-04 9.938561165478684845e-02 1.740088341640037047e-04 2.104789529260958983e-03
1.321000000000000126e-04 1.236720406455826121e-01 2.260189757651373944e-04 2.178291718403657477e-03
1.623999999999999901e-04 1.520974545104751274e-01 2.888169908545388338e-04 2.240170365918073281e-03
1.689999999999999879e-04 1.582907717069566844e-01 3.027354772999506964e-04 2.254509350360745651e-03
1.758999999999999930e-04 1.647661861691531171e-01 3.173785841705756782e-04 2.268169273277113179e-03
1.830000000000000029e-04 1.714298948183871907e-01 3.325196584577469103e-04 2.276170334580628063e-03
1.901999999999999882e-04 1.781880600978280049e-01 3.479577791899843742e-04 2.292561569242367037e-03
1.977000000000000079e-04 1.852284385240466902e-01 3.641242634600037713e-04 2.299943765467868384e-03
2.054000000000000053e-04 1.924572004474696396e-01 3.808304060475003897e-04 2.322187632288155723e-03
2.079000000000000119e-04 1.948043378760714872e-01 3.864137987380476553e-04 2.435429768083530178e-03
2.081999999999999921e-04 1.950859988578999005e-01 3.870314100985603909e-04 1.950065624557156818e-03
2.090999999999999868e-04 1.959309855029948977e-01 3.881261957135444685e-04 6.411875526909013856e-04
2.159999999999999919e-04 2.024093317906446865e-01 3.940874488768042125e-04 1.199166870571831411e-03
2.231000000000000019e-04 2.090756740932291913e-01 4.013938420547467825e-04 9.928616047829054436e-04
2.311000000000000066e-04 2.165873044433437034e-01 4.085241694843774404e-04 9.056166966301716637e-04
2.401000000000000085e-04 2.250381721984245909e-01 4.159700687886608468e-04 8.565463878902855599e-04
2.500000000000000052e-04 2.343344406330727658e-01 4.237602369176299592e-04 8.194318812157330018e-04
2.642999999999999733e-04 2.477629128650125634e-01 4.345596643180389446e-04 7.890063723638815647e-04
3.052999999999999941e-04 2.862671839140227270e-01 4.644058706720978241e-04 7.612775562167708662e-04
3.533000000000000224e-04 3.313503829113090826e-01 4.987577676308450197e-04 7.626578558207241024e-04
4.075999999999999871e-04 3.823564017794535141e-01 5.381334366106255759e-04 7.813048116943254948e-04
4.679999999999999915e-04 4.390986251953180042e-01 5.832692638200615834e-04 8.096035963157804938e-04
5.341000000000000261e-04 5.012024644415256081e-01 6.346556894078133086e-04 8.452514814113673558e-04
6.059000000000000366e-04 5.686690698184251325e-01 6.930641302632923034e-04 8.862253587289389486e-04
7.661000000000000275e-04 7.192254882508629654e-01 8.328184776562496576e-04 9.702780530519144065e-04
1.262000000000000101e-03 1.185459127778160093e+00 1.338484980802662205e-03 1.198863597978450275e-03
1.894999999999999983e-03 1.780909071169781921e+00 2.123481960401060308e-03 1.437771491635827115e-03
2.673000000000000029e-03 2.513147344746868850e+00 3.261860252001994032e-03 1.671524566936786766e-03
3.605999999999999830e-03 3.391736073717691369e+00 4.828136641022434151e-03 1.893900408978071038e-03
4.709999999999999777e-03 4.431905410739045870e+00 6.903512974832482635e-03 2.096551352830673849e-03
7.496000000000000059e-03 7.058993649504918366e+00 1.289742191321638018e-02 2.466596387205546859e-03
1.119999999999999989e-02 1.055540362104863661e+01 2.212077014004794340e-02 2.809304433764861584e-03
1.600000000000000033e-02 1.509117352747679952e+01 3.559566804390756900e-02 3.132325055719984222e-03
2.206999999999999934e-02 2.083310616724802244e+01 5.457322122755020599e-02 3.477840948757840792e-03
2.947999999999999926e-02 2.785007348564149154e+01 8.049103664263126956e-02 3.909302116317729670e-03
4.268000000000000266e-02 4.036707211535221518e+01 1.353887601042819133e-01 4.862066536253286525e-03
6.219999999999999835e-02 5.891246509830522626e+01 2.419691225623893105e-01 6.630786177272363080e-03
7.316999999999999893e-02 6.935151695866235855e+01 3.161896974764099033e-01 7.588671314871411888e-03
7.595999999999999974e-02 7.200836722020332559e+01 3.371250777904805096e-01 8.170805199905810390e-03
7.685877551020407761e-02 7.286441677612111789e+01 3.442020225487613660e-01 8.363147415198272927e-03
7.775755102040816935e-02 7.372055004179638615e+01 3.514422638482264105e-01 8.550663319548072044e-03
7.865632653061224722e-02 7.457676791405265249e+01 3.588417824228714581e-01 8.733524728912565177e-03
7.955510204081632508e-02 7.543307122411677312e+01 3.663967048500694212e-01 8.911903459249120169e-03
8.045387755102040295e-02 7.628946074149037315e+01 3.741033035729974809e-01 9.085971326515097923e-03
8.135265306122449469e-02 7.714593717764817882e+01 3.819579969291256871e-01 9.255900146667857611e-03
8.225142857142857256e-02 7.800250118957413292e+01 3.899573491842208695e-01 9.421861735664758403e-03
8.315020408163265042e-02 7.885915338314232770e+01 3.980980705713640933e-01 9.584027909463162936e-03
8.404897959183672829e-02 7.971589431635283063e+01 4.063770173345160330e-01 9.742570484020432117e-03
8.494775510204082003e-02 8.057272450242915340e+01 4.147911917762051592e-01 9.897661275293930319e-03
8.584653061224489790e-02 8.142964441278579102e+01 4.233377423089441649e-01 1.004947209924100977e-02
8.674530612244897576e-02 8.228665447987114590e+01 4.320139635100155306e-01 1.019817477181904353e-02
8.764408163265305363e-02 8.314375509989378088e+01 4.408172961792918287e-01 1.034394110898538208e-02
8.854285714285714537e-02 8.400094663543765705e+01 4.497453273997891188e-01 1.048694292669739847e-02
8.944163265306122323e-02 8.485822941797084695e+01 4.587957906006734365e-01 1.062735204091244147e-02
9.034040816326530110e-02 8.571560375025528344e+01 4.679665656224683001e-01 1.076534026758787545e-02
9.123918367346939284e-02 8.657306990866017316e+01 4.772556787842291426e-01 1.090107942268106304e-02
9.213795918367347071e-02 8.743062814538566840e+01 4.866613029524753942e-01 1.103474132214937037e-02
9.303673469387754857e-02 8.828827869059985289e+01 4.961817576116908657e-01 1.116649778195015139e-02
9.393551020408162644e-02 8.914602175449469712e+01 5.058155089362171841e-01 1.129652061804076874e-02
9.483428571428570431e-02 9.000385752926275984e+01 5.155611698633878470e-01 1.142498164637858332e-02
9.573306122448979605e-02 9.086178619100083154e+01 5.254175001677641177e-01 1.155205268292095952e-02
9.663183673469387391e-02 9.171980790154213992e+01 5.353834065363477501e-01 1.167790554362525476e-02
9.753061224489795178e-02 9.257792281022116754e+01 5.454579426446655166e-01 1.180271204444883343e-02
9.842938775510204352e-02 9.343613105557446374e+01 5.556403092336260618e-01 1.192664400134905295e-02
9.932816326530612139e-02 9.429443276697917042e+01 5.659298541870694255e-01 1.204987323028327423e-02
1.002269387755101993e-01 9.515282806623453382e+01 5.763260726099393993e-01 1.217257154720886511e-02
1.011257142857142910e-01 9.601131706908526553e+01 5.868286069070174360e-01 1.229491076808318130e-02
1.020244897959183689e-01 9.686989988669341756e+01 5.974372468621708121e-01 1.241706270886358196e-02
1.029232653061224467e-01 9.772857662705770565e+01 6.081519297180788541e-01 1.253919918550743147e-02
1.038220408163265246e-01 9.858734739638487099e+01 6.189727402564050296e-01 1.266149201397209073e-02
1.047208163265306025e-01 9.944621230041356341e+01 6.298999108783985834e-01 1.278411301021491892e-02
1.056195918367346942e-01 1.003051714456940147e+02 6.409338216859127302e-01 1.290723399019328387e-02
1.065183673469387721e-01 1.011642249408242833e+02 6.520750005628366264e-01 1.303102676986453434e-02
1.074171428571428499e-01 1.020233728976461549e+02 6.633241232569475621e-01 1.315566316518604340e-02
1.083159183673469417e-01 1.028826154324009394e+02 6.746820134621929199e-01 1.328131499211516499e-02
1.092146938775510195e-01 1.037419526668480927e+02 6.861496429014209975e-01 1.340815406660926176e-02
1.101134693877550974e-01 1.046013847293478136e+02 6.977281314095892251e-01 1.353635220462569635e-02
1.110122448979591891e-01 1.054609117559083273e+02 7.094187470174764254e-01 1.366608122212183141e-02
1.119110204081632531e-01 1.063205338912004834e+02 7.212229060359388599e-01 1.379751293505502088e-02
1.128097959183673449e-01 1.071802512895404789e+02 7.331421731407560261e-01 1.393081915938263263e-02
1.137085714285714227e-01 1.080400641158414174e+02 7.451782614581065056e-01 1.406617171106202928e-02
1.146073469387755006e-01 1.088999725465360768e+02 7.573330326507364818e-01 1.420374240605056654e-02
1.155061224489795924e-01 1.097599767704708995e+02 7.696084970048723273e-01 1.434370306030560531e-02
1.164048979591836702e-01 1.106200769897729970e+02 7.820068135179416569e-01 1.448622548978450650e-02
1.173036734693877481e-01 1.114802734206915034e+02 7.945302899871726776e-01 1.463148151044464315e-02
1.182024489795918398e-01 1.123405662944129801e+02 8.071813830991382277e-01 1.477964293824336056e-02
1.191012244897959177e-01 1.132009558578534580e+02 8.199626985203227747e-01 1.493088158913802484e-02
1.199999999999999956e-01 1.140614423744268748e+02 8.328769909887913103e-01 1.508536927908600035e-02
1.223212592211473798e-01 1.162842647775810576e+02 8.668673314944869146e-01 1.549763025156694791e-02
1.246425184422947502e-01 1.185077410943544010e+02 9.017965480420316871e-01 1.592088486147547055e-02
1.269637776634421344e-01 1.207318768612941540e+02 9.376893936712432653e-01 1.635483282007466413e-02
1.292850368845895048e-01 1.229566778591553913e+02 9.745699668932700233e-01 1.679915670319310703e-02
1.316062961057369030e-01 1.251821500876607445e+02 1.012461674672772372e+00 1.725352336732520822e-02
1.339275553268842733e-01 1.274082997414128471e+02 1.051387198398449518e+00 1.771758529581542521e-02
1.362488145480316437e-01 1.296351331869129524e+02 1.091368462691326258e+00 1.819098187852700305e-02
1.385700737691790141e-01 1.318626569406364410e+02 1.132426606907722011e+00 1.867334062821635055e-02
1.408913329903264122e-01 1.340908776481223015e+02 1.174581959200986070e+00 1.916427833665841976e-02
1.432125922114737826e-01 1.363198020640323307e+02 1.217854013012833025e+00 1.966340217339091964e-02
1.455338514326211530e-01 1.385494370331426239e+02 1.262261405871498710e+00 2.017031072976847167e-02
1.478551106537685511e-01 1.407797894722253602e+02 1.307821900379915636e+00 2.068459501085919902e-02
1.501763698749159215e-01 1.430108663527873318e+02 1.354552367282735093e+00 2.120583937752827663e-02
1.524976290960632919e-01 1.452426746846292076e+02 1.402468770506279050e+00 2.173362244092540141e-02
1.548188883172106900e-01 1.474752215001925038e+02 1.451586154070399370e+00 2.226751791141788617e-02
1.571401475383580604e-01 1.497085138396615775e+02 1.501918630775799013e+00 2.280709540387938772e-02
1.594614067595054308e-01 1.519425587367921651e+02 1.553479372574615214e+00 2.335192120110550842e-02
1.617826659806528289e-01 1.541773632054368761e+02 1.606280602535990143e+00 2.390155897699855134e-02
1.641039252018001993e-01 1.564129342267379741e+02 1.660333588322015608e+00 2.445557048104398182e-02
1.664251844229475696e-01 1.586492787369648738e+02 1.715648637092812789e+00 2.501351618548795092e-02
1.687464436440949678e-01 1.608864036159665147e+02 1.772235091762604631e+00 2.557495589651866477e-02
1.710677028652423382e-01 1.631243156762182025e+02 1.830101328531528404e+00 2.613944933065707674e-02
1.733889620863897085e-01 1.653630216524359184e+02 1.889254755620580761e+00 2.670655665747067795e-02
1.757102213075371067e-01 1.676025281917394238e+02 1.949701813139499418e+00 2.727583900963921615e-02
1.780314805286844770e-01 1.698428418443382384e+02 2.011447974019644924e+00 2.784685896132354718e-02
1.803527397498318474e-01 1.720839690547243208e+02 2.074497745945990790e+00 2.841918097571746391e-02
1.826739989709792455e-01 1.743259161533476345e+02 2.138854674224203833e+00 2.899237182259569237e-02
1.849952581921266159e-01 1.765686893487568057e+02 2.204521345520536801e+00 2.956600096661260446e-02
1.873165174132739863e-01 1.788122947201878219e+02 2.271499392413845353e+00 3.013964092705136502e-02
1.896377766344213844e-01 1.810567382105787146e+02 2.339789498700477033e+00 3.071286760967354562e-02
1.919590358555687271e-01 1.833020256199977496e+02 2.409391405394135877e+00 3.128526061127717695e-02
1.942802950767161252e-01 1.855481625994650869e+02 2.480303917364067523e+00 3.185640349752964784e-02
1.966015542978635233e-01 1.877951546451520244e+02 2.552524910555998172e+00 3.242588405461007545e-02
1.989228135190108659e-01 1.900430070929427586e+02 2.626051339741385160e+00 3.299329451516272438e-02
2.012440727401582641e-01 1.922917251133444552e+02 2.700879246741457518e+00 3.355823175904022737e-02
2.035653319613056345e-01 1.945413137067277773e+02 2.777003769073443706e+00 3.412029748929074069e-02
2.058865911824530048e-01 1.967917776988859941e+02 2.854419148967292763e+00 3.467909838382675358e-02
2.082078504036004030e-01 1.990431217368980583e+02 2.933118742701936288e+00 3.523424622319830390e-02
2.105291096247477733e-01 2.012953502852811596e+02 3.013095030210965586e+00 3.578535799488158364e-02
2.128503688458951437e-01 2.035484676224206453e+02 3.094339624908335917e+00 3.633205597448739554e-02
2.151716280670425419e-01 2.058024778372638934e+02 3.176843283685414132e+00 3.687396778428791294e-02
2.174928872881899122e-01 2.080573848262642969e+02 3.260595917031422264e+00 3.741072642945908466e-02
2.198141465093372826e-01 2.103131922905660360e+02 3.345586599230039315e+00 3.794197031243652651e-02
2.221354057304846807e-01 2.125699037334134118e+02 3.431803578585604253e+00 3.846734322578646698e-02
2.244566649516320511e-01 2.148275224577770643e+02 3.519234287633101754e+00 3.898649432399929615e-02
2.267779241727794215e-01 2.170860515641832649e+02 3.607865353286849874e+00 3.949907807462045561e-02
2.290991833939268196e-01 2.193454939487338322e+02 3.697682606883519796e+00 4.000475418914534176e-02
2.314204426150741900e-01 2.216058523013103070e+02 3.788671094075926948e+00 4.050318753411497746e-02
2.337417018362215604e-01 2.238671291039457856e+02 3.880815084534829928e+00 4.099404802286456956e-02
3.106041160844619231e-01 2.999578859168401550e+02 1.263423466345138380e+01 1.866311564449817939e-01
3.874665303327022858e-01 3.795080558809155491e+02 3.346259465553096391e+01 3.322682648670989836e-01
4.643289445809427041e-01 4.643968728203529963e+02 6.813690203457203154e+01 4.779053732892162842e-01
5.411913588291830113e-01 5.560477869049458377e+02 1.140500091381056649e+02 5.221964578509011856e-01
6.180537730774233740e-01 6.547125226884323865e+02 1.662388617846640102e+02 5.355798974936358814e-01
6.949161873256638478e-01 7.601815324690205671e+02 2.234412401024424923e+02 5.489633371363706882e-01
7.717786015739042105e-01 8.722596251621764623e+02 2.857300669955572516e+02 5.623467767791054950e-01
8.486410158221445732e-01 9.907989564101932274e+02 3.531976330692356214e+02 5.757302164218401908e-01
9.255034300703849359e-01 1.115687656637271402e+03 4.259514041846200030e+02 5.891136560645748865e-01
1.002365844318625410e+00 1.246841970497595412e+03 5.041112059773117835e+02 6.024970957073096933e-01
1.079228258566865772e+00 1.384203687820060168e+03 5.880210979813591621e+02 6.188574374745468010e-01
1.156090672815106135e+00 1.527757938300375372e+03 6.781110805006925375e+02 6.358684598723616244e-01
1.232953087063346498e+00 1.677513082972708617e+03 7.746402782537478515e+02 6.528794822701763367e-01
1.309815501311586861e+00 1.833490769788956641e+03 8.778339588645353615e+02 6.698905046679911601e-01
1.386677915559827223e+00 1.995723587876890406e+03 9.879259311223129316e+02 6.869015270658059835e-01
1.463540329808067586e+00 2.164253712890379120e+03 1.105158344147950629e+03 7.039125494636208069e-01
1.540402744056307949e+00 2.339131829268292677e+03 1.229781569591231573e+03 7.209235718614355193e-01
1.617265158304548311e+00 2.520416263774929121e+03 1.362054146933433458e+03 7.379345942592503427e-01
1.694127572552788674e+00 2.708172282653517414e+03 1.502242777673269757e+03 7.549456166570651661e-01
1.770989986801029037e+00 2.902471517179038528e+03 1.650622358076472892e+03 7.719566390548799895e-01
1.847852401049269400e+00 3.103367239469506330e+03 1.802667507575904438e+03 7.426183219258610801e-01
1.924714815297509762e+00 3.310513115431534061e+03 1.945778177774010146e+03 6.415974986103423205e-01
2.001577229545750125e+00 3.523012290106108139e+03 2.071180024099131970e+03 5.405766752948234499e-01
2.078439643793990932e+00 3.739947065254575136e+03 2.177337082609779827e+03 4.395558519793040242e-01
