# density  energy_density  pressure   sound_speed_squared  [All in nuclear units]
2.720000000000000022e-14 2.529924618736292620e-11 1.061056609100270887e-19 3.766610435412189122e-08
1.269999999999999890e-13 1.181251617980081254e-10 4.870113551826584858e-18 6.497781477172163475e-08
6.929999999999999754e-13 6.445728594625782745e-10 1.018299070687946017e-16 3.033770597342807186e-07
6.295000000000000137e-12 5.855111460395753757e-09 5.487150723824490656e-15 1.763710043904196507e-06
1.581000000000000150e-11 1.470523320212576141e-08 2.904239460150760759e-14 3.559434472327477622e-06
3.971999999999999958e-11 3.694456170323160790e-08 1.439340266754906811e-13 6.772854871245677111e-06
9.975999999999999982e-11 9.278976412613005154e-08 6.812143616221268841e-13 1.246890511177539320e-05
2.505999999999999928e-10 2.330928829758143313e-07 3.107749196951638608e-12 2.212095130576091967e-05
6.294000000000000186e-10 5.854398883216247602e-07 1.363250409771533549e-11 3.761981047239428883e-05
1.581000000000000021e-09 1.470619631082054101e-06 5.726014178088476303e-11 6.095350986710739404e-05
3.971999999999999932e-09 3.694861084648016046e-06 2.210019573374265380e-10 8.628023653304385055e-05
5.000000000000000105e-09 4.651201787816927976e-06 3.071485916280120014e-10 9.387863480799757518e-05
9.975999999999999465e-09 9.280587964640925786e-06 8.385361004129998845e-10 1.356922228656245837e-04
1.989999999999999952e-08 1.851419242998081003e-05 2.287763168863418088e-09 1.782101978513718314e-04
3.972999999999999908e-08 3.696699295748789187e-05 6.061583099087538954e-09 2.308134738384234820e-04
7.925999999999999637e-08 7.375765469301719828e-05 1.575347858094044765e-08 2.960532096713864875e-04
1.580999999999999930e-07 1.471491184379128891e-04 3.910429618672550719e-08 3.402859755131850544e-04
1.991000000000000027e-07 1.853209783927820692e-04 5.252045687899177454e-08 3.626488188833278743e-04
3.155999999999999938e-07 2.938002528823880299e-04 9.730770378831954314e-08 4.630767356912104081e-04
5.000999999999999849e-07 4.656344063839075714e-04 1.837494945860225819e-07 5.430301232045120323e-04
6.295999999999999732e-07 5.862651417037388971e-04 2.503103884558263872e-07 5.605192962670089638e-04
9.666999999999999941e-07 9.003386739730535665e-04 4.324450868778576936e-07 5.993081670211623108e-04
1.531999999999999901e-06 1.427170885631398036e-03 7.780217275717420968e-07 7.125938556504039095e-04
2.506999999999999883e-06 2.336134972129507662e-03 1.471005394641589826e-06 8.121876172121876309e-04
3.974000000000000407e-06 3.704315759716615697e-03 2.695705763844323844e-06 9.780674166779417152e-04
4.830000000000000343e-06 4.502887798316278223e-03 3.503988717694660908e-06 1.046253037768318664e-03
6.080999999999999885e-06 5.670217999231269741e-03 4.731126407333307547e-06 1.056224360839501646e-03
7.930000000000000308e-06 7.396012414119570652e-03 6.599662989063778187e-06 1.109203753630785610e-03
9.982000000000000313e-06 9.311815711689977113e-03 8.879881089227186733e-06 1.271216815433141075e-03
1.256999999999999993e-05 1.172874412604260098e-02 1.207676739913533738e-05 1.374195438212825332e-03
1.521999999999999997e-05 1.420427250933824909e-02 1.547541302213394990e-05 1.371610497379100249e-03
1.991000000000000080e-05 1.858690797761085312e-02 2.160710455847765458e-05 1.426578142835871997e-03
2.506999999999999883e-05 2.341050104039446925e-02 2.908031724375689851e-05 1.672007475975408053e-03
2.790999999999999875e-05 2.606604784714952258e-02 3.357009132255487721e-05 1.709425557744154774e-03
3.806999999999999973e-05 3.556967988784798945e-02 4.986781576435106434e-05 1.720407281314112165e-03
5.063000000000000145e-05 4.732434580343149871e-02 7.073400252905581275e-05 1.829889149838781265e-03
6.592000000000000583e-05 6.164112392498975052e-02 9.765037643900635188e-05 1.930242980462695823e-03
8.433000000000000066e-05 7.888776783401378612e-02 1.317235490470395893e-04 2.021055815200022837e-03
1.062000000000000064e-04 9.938561165478684845e-02 1.740088341640037047e-04 2.104789529260958983e-03
1.321000000000000126e-04 1.236720406455826121e-01 2.260189757651373944e-04 2.178291718403657477e-03
1.623999999999999901e-04 1.520974545104751274e-01 2.888169908545388338e-04 2.240170365918073281e-03
1.689999999999999879e-04 1.582907717069566844e-01 3.027354772999506964e-04 2.254509350360745651e-03
1.758999999999999930e-04 1.647661861691531171e-01 3.173785841705756782e-04 2.268169273277113179e-03
1.830000000000000029e-04 1.714298948183871907e-01 3.325196584577469103e-04 2.276170334580628063e-03
1.901999999999999882e-04 1.781880600978280049e-01 3.479577791899843742e-04 2.292561569242367037e-03
1.977000000000000079e-04 1.852284385240466902e-01 3.641242634600037713e-04 2.299943765467868384e-03
2.054000000000000053e-04 1.924572004474696396e-01 3.808304060475003897e-04 2.322187632288155723e-03
2.079000000000000119e-04 1.948043378760714872e-01 3.864137987380476553e-04 2.435429768083530178e-03
2.081999999999999921e-04 1.950859988578999005e-01 3.870314100985603909e-04 1.950065624557156818e-03
2.090999999999999868e-04 1.959309855029948977e-01 3.881261957135444685e-04 6.411875526909013856e-04
2.159999999999999919e-04 2.024093317906446865e-01 3.940874488768042125e-04 1.199166870571831411e-03
2.231000000000000019e-04 2.090756740932291913e-01 4.013938420547467825e-04 9.928616047829054436e-04
2.311000000000000066e-04 2.165873044433437034e-01 4.085241694843774404e-04 9.056166966301716637e-04
2.401000000000000085e-04 2.250381721984245909e-01 4.159700687886608468e-04 8.565463878902855599e-04
2.500000000000000052e-04 2.343344406330727658e-01 4.237602369176299592e-04 8.194318812157330018e-04
2.642999999999999733e-04 2.477629128650125634e-01 4.345596643180389446e-04 7.890063723638815647e-04
3.052999999999999941e-04 2.862671839140227270e-01 4.644058706720978241e-04 7.612775562167708662e-04
3.533000000000000224e-04 3.313503829113090826e-01 4.987577676308450197e-04 7.626578558207241024e-04
4.075999999999999871e-04 3.823564017794535141e-01 5.381334366106255759e-04 7.813048116943254948e-04
4.679999999999999915e-04 4.390986251953180042e-01 5.832692638200615834e-04 8.096035963157804938e-04
5.341000000000000261e-04 5.012024644415256081e-01 6.346556894078133086e-04 8.452514814113673558e-04
6.059000000000000366e-04 5.686690698184251325e-01 6.930641302632923034e-04 8.862253587289389486e-04
7.661000000000000275e-04 7.192254882508629654e-01 8.328184776562496576e-04 9.702780530519144065e-04
1.262000000000000101e-03 1.185459127778160093e+00 1.338484980802662205e-03 1.198863597978450275e-03
1.894999999999999983e-03 1.780909071169781921e+00 2.123481960401060308e-03 1.437771491635827115e-03
2.673000000000000029e-03 2.513147344746868850e+00 3.261860252001994032e-03 1.671524566936786766e-03
3.605999999999999830e-03 3.391736073717691369e+00 4.828136641022434151e-03 1.893900408978071038e-03
4.709999999999999777e-03 4.431905410739045870e+00 6.903512974832482635e-03 2.096551352830673849e-03
7.496000000000000059e-03 7.058993649504918366e+00 1.289742191321638018e-02 2.466596387205546859e-03
1.119999999999999989e-02 1.055540362104863661e+01 2.212077014004794340e-02 2.809304433764861584e-03
1.600000000000000033e-02 1.509117352747679952e+01 3.559566804390756900e-02 3.132325055719984222e-03
2.206999999999999934e-02 2.083310616724802244e+01 5.457322122755020599e-02 3.477840948757840792e-03
2.947999999999999926e-02 2.785007348564149154e+01 8.049103664263126956e-02 3.909302116317729670e-03
4.268000000000000266e-02 4.036707211535221518e+01 1.353887601042819133e-01 4.862066536253286525e-03
6.219999999999999835e-02 5.891246509830522626e+01 2.419691225623893105e-01 6.630786177272363080e-03
7.316999999999999893e-02 6.935151695866235855e+01 3.161896974764099033e-01 7.588671314871411888e-03
7.595999999999999974e-02 7.200836722020332559e+01 3.371250777904805096e-01 8.170805199905810390e-03
7.685877551020407761e-02 7.286441683614205544e+01 3.442122941893875909e-01 8.387142838034147493e-03
7.775755102040816935e-02 7.372055044055626638e+01 3.514901004534441986e-01 8.614414103557352723e-03
7.865632653061224722e-02 7.457676931893423955e+01 3.589677495227588389e-01 8.852252008377232625e-03
7.955510204081632508e-02 7.543307483135738778e+01 3.666541843999863715e-01 9.100289564395614567e-03
8.045387755102040295e-02 7.628946840647024885e+01 3.745580381240222190e-01 9.358159783514308563e-03
8.135265306122449469e-02 7.714595153571909236e+01 3.826876337408233741e-01 9.625495677635138511e-03
8.225142857142857256e-02 7.800252576784539826e+01 3.910509842702598049e-01 9.901930258659910958e-03
8.315020408163265042e-02 7.885919270361897304e+01 3.996557926680131545e-01 1.018709653849044459e-02
8.404897959183672829e-02 7.971595399079929223e+01 4.085094517816344473e-01 1.048062752902855985e-02
8.494775510204082003e-02 8.057281131931092943e+01 4.176190442999715979e-01 1.078215624217607888e-02
8.584653061224489790e-02 8.142976641662309589e+01 4.269913426952609559e-01 1.109131568983479782e-02
8.674530612244897576e-02 8.228682104332214919e+01 4.366328091572619363e-01 1.140773888390655445e-02
8.764408163265305363e-02 8.314397698886655519e+01 4.465495955188852895e-01 1.173105883629314838e-02
8.854285714285714537e-02 8.400123606751530758e+01 4.567475431728406643e-01 1.206090855889641739e-02
8.944163265306122323e-02 8.485860011442112238e+01 4.672321829788922409e-01 1.239692106361815760e-02
9.034040816326530110e-02 8.571607098187870122e+01 4.780087351613764857e-01 1.273872936236018771e-02
9.123918367346939284e-02 8.657365053572284808e+01 4.890821091966888745e-01 1.308596646702433683e-02
9.213795918367347071e-02 8.743134065186569615e+01 5.004569036905055501e-01 1.343826538951240976e-02
9.303673469387754857e-02 8.828914321296872458e+01 5.121374062445561703e-01 1.379525914172622693e-02
9.393551020408162644e-02 8.914706010524210456e+01 5.241275933128074493e-01 1.415658073556760183e-02
9.483428571428570431e-02 9.000509321536466700e+01 5.364311300469677413e-01 1.452186318293835487e-02
9.573306122448979605e-02 9.086324442751927677e+01 5.490513701312618178e-01 1.489073949574030303e-02
9.663183673469387391e-02 9.172151562053825558e+01 5.619913556064634053e-01 1.526284268587526152e-02
9.753061224489795178e-02 9.257990866515282846e+01 5.752538166832159572e-01 1.563780576524504209e-02
9.842938775510204352e-02 9.343842542134255780e+01 5.888411715446986161e-01 1.601526174575147038e-02
9.932816326530612139e-02 9.429706773577954948e+01 6.027555261387351759e-01 1.639484363929635466e-02
1.002269387755101993e-01 9.515583743936348071e+01 6.169986739594730540e-01 1.677618445778151016e-02
1.011257142857142910e-01 9.601473634484266029e+01 6.315720958187843737e-01 1.715891721310876944e-02
1.020244897959183689e-01 9.687376624451779605e+01 6.464769596075740088e-01 1.754267491717992344e-02
1.029232653061224467e-01 9.773292890802485999e+01 6.617141200472077545e-01 1.792709058189680474e-02
1.038220408163265246e-01 9.859222608019261713e+01 6.772841184312889951e-01 1.831179721916122854e-02
1.047208163265306025e-01 9.945165947897218928e+01 6.931871823580473269e-01 1.869642784087500662e-02
1.056195918367346942e-01 1.003112307934358824e+02 7.094232254536174676e-01 1.908061545893996458e-02
1.065183673469387721e-01 1.011709416818409437e+02 7.259918470865102114e-01 1.946399308525791072e-02
1.074171428571428499e-01 1.020307937697570395e+02 7.428923320735999480e-01 1.984619373173066026e-02
1.083159183673469417e-01 1.028907886482530643e+02 7.601236503779664755e-01 2.022685041026003883e-02
1.092146938775510195e-01 1.037509278721425403e+02 7.776844567989520396e-01 2.060559613274785123e-02
1.101134693877550974e-01 1.046112129582831187e+02 7.955730906548126313e-01 2.098206391109591618e-02
1.110122448979591891e-01 1.054716453839300527e+02 8.137875754583528964e-01 2.135588675720605928e-02
1.119110204081632531e-01 1.063322265851396224e+02 8.323256185859548850e-01 2.172669768298008536e-02
1.128097959183673449e-01 1.071929579552213596e+02 8.511846109404295202e-01 2.209412970031982698e-02
1.137085714285714227e-01 1.080538408432369408e+02 8.703616266081178887e-01 2.245781582112707855e-02
1.146073469387755006e-01 1.089148765525438165e+02 8.898534225107086471e-01 2.281738905730366918e-02
1.155061224489795924e-01 1.097760663393817282e+02 9.096564380522250692e-01 2.317248242075142101e-02
1.164048979591836702e-01 1.106374114115003948e+02 9.297667947616636841e-01 2.352272892337214233e-02
1.173036734693877481e-01 1.114989129268270744e+02 9.501802959317769970e-01 2.386776157706765183e-02
1.182024489795918398e-01 1.123605719921719128e+02 9.708924262544962325e-01 2.420721339373976128e-02
1.191012244897959177e-01 1.132223896619697143e+02 9.918983514535075763e-01 2.454071738529028934e-02
1.199999999999999956e-01 1.140843669370573963e+02 1.013192917914508939e+00 2.486790656362105126e-02
1.219816651740577018e-01 1.159854674397498826e+02 1.061143146177550900e+00 2.557667807834846513e-02
1.239633303481153942e-01 1.178873581461143658e+02 1.110479292864450462e+00 2.630435358411787813e-02
1.259449955221730866e-01 1.197900488797671841e+02 1.161239112071337010e+00 2.705134140755227276e-02
1.279266606962307928e-01 1.216935497559735779e+02 1.213461218215676984e+00 2.781805772381891473e-02
1.299083258702884991e-01 1.235978711815630646e+02 1.267185104567395193e+00 2.860492676968088080e-02
1.318899910443462054e-01 1.255030238551371866e+02 1.322451162318066809e+00 2.941238104723535238e-02
1.338716562184039116e-01 1.274090187675538175e+02 1.379300700176408156e+00 3.024086151857212357e-02
1.358533213924615901e-01 1.293158672026780209e+02 1.437775964478861468e+00 3.109081779154541231e-02
1.378349865665192964e-01 1.312235807383862891e+02 1.497920159804568829e+00 3.196270829682024833e-02
1.398166517405770026e-01 1.331321712478108452e+02 1.559777470084455997e+00 3.285700045631819582e-02
1.417983169146347089e-01 1.350416509008189223e+02 1.623393080194550420e+00 3.377417084315920137e-02
1.437799820886923874e-01 1.369520321657117563e+02 1.688813198023964235e+00 3.471470533316774881e-02
1.457616472627500936e-01 1.388633278111393281e+02 1.756085077008276762e+00 3.567909924798618598e-02
1.477433124368077999e-01 1.407755509082190599e+02 1.825257039119268621e+00 3.666785748981350040e-02
1.497249776108655062e-01 1.426887148328527815e+02 1.896378498302188520e+00 3.768149466776462425e-02
1.517066427849231847e-01 1.446028332682337236e+02 1.969499984351862354e+00 3.872053521582632940e-02
1.536883079589808909e-01 1.465179202075377134e+02 2.044673167219106080e+00 3.978551350236345791e-02
1.556699731330385972e-01 1.484339899567912937e+02 2.121950881738962735e+00 4.087697393111230232e-02
1.576516383070963034e-01 1.503510571379109138e+02 2.201387152772387168e+00 4.199547103357965938e-02
1.596333034811540097e-01 1.522691366919084430e+02 2.283037220752983654e+00 4.314156955274978111e-02
1.616149686552116882e-01 1.541882438822566144e+02 2.366957567630433523e+00 4.431584451798524504e-02
1.635966338292693945e-01 1.561083942984102748e+02 2.453205943202214190e+00 4.551888131099379037e-02
1.655782990033271007e-01 1.580296038594778452e+02 2.541841391825137020e+00 4.675127572271785270e-02
1.675599641773848070e-01 1.599518888180388387e+02 2.632924279498196629e+00 4.801363400099165069e-02
1.695416293514425132e-01 1.618752657641036024e+02 2.726516321308074087e+00 4.930657288879671668e-02
1.715232945255001917e-01 1.637997516292101636e+02 2.822680609228538806e+00 5.063071965293577253e-02
1.735049596995578980e-01 1.657253636906559677e+02 2.921481640264847357e+00 5.198671210293292350e-02
1.754866248736156042e-01 1.676521195758577676e+02 3.022985344934035368e+00 5.337519859995780436e-02
1.774682900476733105e-01 1.695800372668396108e+02 3.127259116071862799e+00 5.479683805556144482e-02
1.794499552217310168e-01 1.715091351048434092e+02 3.234371837956911744e+00 5.625229992000142787e-02
1.814316203957886953e-01 1.734394317950584821e+02 3.344393915742136070e+00 5.774226415992591427e-02
1.834132855698464015e-01 1.753709464114677132e+02 3.457397305183909531e+00 5.926742122517757172e-02
1.853949507439041078e-01 1.773036984018080773e+02 3.573455542658331208e+00 6.082847200447046021e-02
1.873766159179617863e-01 1.792377075926391399e+02 3.692643775454310440e+00 6.242612776968647220e-02
1.893582810920195203e-01 1.811729941945212659e+02 3.815038792332611894e+00 6.406111010853109133e-02
1.913399462660771988e-01 1.831095788072962023e+02 3.940719054339710148e+00 6.573415084528279329e-02
1.933216114401349051e-01 1.850474824254706903e+02 4.069764725865070432e+00 6.744599194936508335e-02
1.953032766141926113e-01 1.869867264436976768e+02 4.202257705929961951e+00 6.919738543146528031e-02
1.972849417882502898e-01 1.889273326623543880e+02 4.338281659695708115e+00 7.098909322692112389e-02
1.992666069623079961e-01 1.908693232932132560e+02 4.477922050178804625e+00 7.282188706609275808e-02
2.012482721363657023e-01 1.928127209652042495e+02 4.621266170159958442e+00 7.469654833143492267e-02
2.032299373104234086e-01 1.947575487302635509e+02 4.768403174273740497e+00 7.661386790098259625e-02
2.052116024844811148e-01 1.967038300692708219e+02 4.919424111265073840e+00 7.857464597796291750e-02
2.071932676585387934e-01 1.986515888980656825e+02 5.074421956398386335e+00 8.057969190624519884e-02
2.091749328325964996e-01 2.006008495735477197e+02 5.233491644004804932e+00 8.262982397134154000e-02
2.111565980066542059e-01 2.025516368998522125e+02 5.396730100152296927e+00 8.472586918667246447e-02
2.131382631807118844e-01 2.045039761346016007e+02 5.564236275423252387e+00 8.686866306481359767e-02
2.151199283547696184e-01 2.064578929952300825e+02 5.736111177783484116e+00 8.905904937344311101e-02
2.171015935288272969e-01 2.084134136653775045e+02 5.912457905526119717e+00 9.129787987571164054e-02
2.943036018241573792e-01 2.864144101750523532e+02 1.790217931632142978e+01 2.132215005739594438e-01
3.715056101194874061e-01 3.688095518297009789e+02 4.067214835448014298e+01 3.351451212722071360e-01
4.487076184148174329e-01 4.570934965954608060e+02 7.588853428965140324e+01 4.570687419704548282e-01
5.259096267101475153e-01 5.525619601658743250e+02 1.256684334832841330e+02 5.789923626687025759e-01
6.031116350054775976e-01 6.564390776585535150e+02 1.912439704102120004e+02 6.774140451976365940e-01
6.803136433008076800e-01 7.695610887757256933e+02 2.655234322933481508e+02 6.389641631210950523e-01
7.575156515961376513e-01 8.911905688941433255e+02 3.407483539788549365e+02 6.005142810445536217e-01
8.347176598914677337e-01 1.020495598555373590e+03 4.157785583861525538e+02 5.620643989680120800e-01
9.119196681867978160e-01 1.156698805321633017e+03 4.895996853791434091e+02 5.236145168914705383e-01
9.891216764821278984e-01 1.299073700130815951e+03 5.613129191389832613e+02 4.851646348149289967e-01
1.066323684777457981e+00 1.446941393719780535e+03 6.301256060253385840e+02 4.467147527383874550e-01
1.143525693072787952e+00 1.599667614764189238e+03 6.953426383779545858e+02 4.082648706618460244e-01
1.220727701368117923e+00 1.756659976038819423e+03 7.563585118693085860e+02 3.698149885853045382e-01
1.297929709663447895e+00 1.917369455338134912e+03 8.128447040176595237e+02 3.337390752900206148e-01
1.375131717958778310e+00 2.081353034500538797e+03 8.672378123143406583e+02 3.297631650952861371e-01
1.452333726254108281e+00 2.248401807304750946e+03 9.219843300126900658e+02 3.257872549005516594e-01
1.529535734549438253e+00 2.418426460108413721e+03 9.803305840267385065e+02 3.601759185711345124e-01
1.606737742844768224e+00 2.591578233413199086e+03 1.046373039269686387e+03 4.021574212763688316e-01
1.683939751140098195e+00 2.767872050771402428e+03 1.105688288196687836e+03 2.721674453302559971e-01
1.761141759435428611e+00 2.946625925770367758e+03 1.158669406182481680e+03 3.202286235917431445e-01
1.838343767730758582e+00 3.127902156055700289e+03 1.221115762636189174e+03 3.682898018532300144e-01
1.915545776026088554e+00 3.311999650348750038e+03 1.293387293617045543e+03 4.163509801147168843e-01
1.992747784321418525e+00 3.499208471622236175e+03 1.375883184199626385e+03 4.644121583762037542e-01
2.069949792616748496e+00 3.689812379514827626e+03 1.469041407069317984e+03 5.124733366376906796e-01
