# density  energy_density  pressure   sound_speed_squared  [All in nuclear units]
2.720000000000000022e-14 2.529924618736292620e-11 1.061056609100270887e-19 3.766610435412189122e-08
1.269999999999999890e-13 1.181251617980081254e-10 4.870113551826584858e-18 6.497781477172163475e-08
6.929999999999999754e-13 6.445728594625782745e-10 1.018299070687946017e-16 3.033770597342807186e-07
6.295000000000000137e-12 5.855111460395753757e-09 5.487150723824490656e-15 1.763710043904196507e-06
1.581000000000000150e-11 1.470523320212576141e-08 2.904239460150760759e-14 3.559434472327477622e-06
3.971999999999999958e-11 3.694456170323160790e-08 1.439340266754906811e-13 6.772854871245677111e-06
9.975999999999999982e-11 9.278976412613005154e-08 6.812143616221268841e-13 1.246890511177539320e-05
2.505999999999999928e-10 2.330928829758143313e-07 3.107749196951638608e-12 2.212095130576091967e-05
6.294000000000000186e-10 5.854398883216247602e-07 1.363250409771533549e-11 3.761981047239428883e-05
1.581000000000000021e-09 1.470619631082054101e-06 5.726014178088476303e-11 6.095350986710739404e-05
3.971999999999999932e-09 3.694861084648016046e-06 2.210019573374265380e-10 8.628023653304385055e-05
5.000000000000000105e-09 4.651201787816927976e-06 3.071485916280120014e-10 9.387863480799757518e-05
9.975999999999999465e-09 9.280587964640925786e-06 8.385361004129998845e-10 1.356922228656245837e-04
1.989999999999999952e-08 1.851419242998081003e-05 2.287763168863418088e-09 1.782101978513718314e-04
3.972999999999999908e-08 3.696699295748789187e-05 6.061583099087538954e-09 2.308134738384234820e-04
7.925999999999999637e-08 7.375765469301719828e-05 1.575347858094044765e-08 2.960532096713864875e-04
1.580999999999999930e-07 1.471491184379128891e-04 3.910429618672550719e-08 3.402859755131850544e-04
1.991000000000000027e-07 1.853209783927820692e-04 5.252045687899177454e-08 3.626488188833278743e-04
3.155999999999999938e-07 2.938002528823880299e-04 9.730770378831954314e-08 4.630767356912104081e-04
5.000999999999999849e-07 4.656344063839075714e-04 1.837494945860225819e-07 5.430301232045120323e-04
6.295999999999999732e-07 5.862651417037388971e-04 2.503103884558263872e-07 5.605192962670089638e-04
9.666999999999999941e-07 9.003386739730535665e-04 4.324450868778576936e-07 5.993081670211623108e-04
1.531999999999999901e-06 1.427170885631398036e-03 7.780217275717420968e-07 7.125938556504039095e-04
2.506999999999999883e-06 2.336134972129507662e-03 1.471005394641589826e-06 8.121876172121876309e-04
3.974000000000000407e-06 3.704315759716615697e-03 2.695705763844323844e-06 9.780674166779417152e-04
4.830000000000000343e-06 4.502887798316278223e-03 3.503988717694660908e-06 1.046253037768318664e-03
6.080999999999999885e-06 5.670217999231269741e-03 4.731126407333307547e-06 1.056224360839501646e-03
7.930000000000000308e-06 7.396012414119570652e-03 6.599662989063778187e-06 1.109203753630785610e-03
9.982000000000000313e-06 9.311815711689977113e-03 8.879881089227186733e-06 1.271216815433141075e-03
1.256999999999999993e-05 1.172874412604260098e-02 1.207676739913533738e-05 1.374195438212825332e-03
1.521999999999999997e-05 1.420427250933824909e-02 1.547541302213394990e-05 1.371610497379100249e-03
1.991000000000000080e-05 1.858690797761085312e-02 2.160710455847765458e-05 1.426578142835871997e-03
2.506999999999999883e-05 2.341050104039446925e-02 2.908031724375689851e-05 1.672007475975408053e-03
2.790999999999999875e-05 2.606604784714952258e-02 3.357009132255487721e-05 1.709425557744154774e-03
3.806999999999999973e-05 3.556967988784798945e-02 4.986781576435106434e-05 1.720407281314112165e-03
5.063000000000000145e-05 4.732434580343149871e-02 7.073400252905581275e-05 1.829889149838781265e-03
6.592000000000000583e-05 6.164112392498975052e-02 9.765037643900635188e-05 1.930242980462695823e-03
8.433000000000000066e-05 7.888776783401378612e-02 1.317235490470395893e-04 2.021055815200022837e-03
1.062000000000000064e-04 9.938561165478684845e-02 1.740088341640037047e-04 2.104789529260958983e-03
1.321000000000000126e-04 1.236720406455826121e-01 2.260189757651373944e-04 2.178291718403657477e-03
1.623999999999999901e-04 1.520974545104751274e-01 2.888169908545388338e-04 2.240170365918073281e-03
1.689999999999999879e-04 1.582907717069566844e-01 3.027354772999506964e-04 2.254509350360745651e-03
1.758999999999999930e-04 1.647661861691531171e-01 3.173785841705756782e-04 2.268169273277113179e-03
1.830000000000000029e-04 1.714298948183871907e-01 3.325196584577469103e-04 2.276170334580628063e-03
1.901999999999999882e-04 1.781880600978280049e-01 3.479577791899843742e-04 2.292561569242367037e-03
1.977000000000000079e-04 1.852284385240466902e-01 3.641242634600037713e-04 2.299943765467868384e-03
2.054000000000000053e-04 1.924572004474696396e-01 3.808304060475003897e-04 2.322187632288155723e-03
2.079000000000000119e-04 1.948043378760714872e-01 3.864137987380476553e-04 2.435429768083530178e-03
2.081999999999999921e-04 1.950859988578999005e-01 3.870314100985603909e-04 1.950065624557156818e-03
2.090999999999999868e-04 1.959309855029948977e-01 3.881261957135444685e-04 6.411875526909013856e-04
2.159999999999999919e-04 2.024093317906446865e-01 3.940874488768042125e-04 1.199166870571831411e-03
2.231000000000000019e-04 2.090756740932291913e-01 4.013938420547467825e-04 9.928616047829054436e-04
2.311000000000000066e-04 2.165873044433437034e-01 4.085241694843774404e-04 9.056166966301716637e-04
2.401000000000000085e-04 2.250381721984245909e-01 4.159700687886608468e-04 8.565463878902855599e-04
2.500000000000000052e-04 2.343344406330727658e-01 4.237602369176299592e-04 8.194318812157330018e-04
2.642999999999999733e-04 2.477629128650125634e-01 4.345596643180389446e-04 7.890063723638815647e-04
3.052999999999999941e-04 2.862671839140227270e-01 4.644058706720978241e-04 7.612775562167708662e-04
3.533000000000000224e-04 3.313503829113090826e-01 4.987577676308450197e-04 7.626578558207241024e-04
4.075999999999999871e-04 3.823564017794535141e-01 5.381334366106255759e-04 7.813048116943254948e-04
4.679999999999999915e-04 4.390986251953180042e-01 5.832692638200615834e-04 8.096035963157804938e-04
5.341000000000000261e-04 5.012024644415256081e-01 6.346556894078133086e-04 8.452514814113673558e-04
6.059000000000000366e-04 5.686690698184251325e-01 6.930641302632923034e-04 8.862253587289389486e-04
7.661000000000000275e-04 7.192254882508629654e-01 8.328184776562496576e-04 9.702780530519144065e-04
1.262000000000000101e-03 1.185459127778160093e+00 1.338484980802662205e-03 1.198863597978450275e-03
1.894999999999999983e-03 1.780909071169781921e+00 2.123481960401060308e-03 1.437771491635827115e-03
2.673000000000000029e-03 2.513147344746868850e+00 3.261860252001994032e-03 1.671524566936786766e-03
3.605999999999999830e-03 3.391736073717691369e+00 4.828136641022434151e-03 1.893900408978071038e-03
4.709999999999999777e-03 4.431905410739045870e+00 6.903512974832482635e-03 2.096551352830673849e-03
7.496000000000000059e-03 7.058993649504918366e+00 1.289742191321638018e-02 2.466596387205546859e-03
1.119999999999999989e-02 1.055540362104863661e+01 2.212077014004794340e-02 2.809304433764861584e-03
1.600000000000000033e-02 1.509117352747679952e+01 3.559566804390756900e-02 3.132325055719984222e-03
2.206999999999999934e-02 2.083310616724802244e+01 5.457322122755020599e-02 3.477840948757840792e-03
2.947999999999999926e-02 2.785007348564149154e+01 8.049103664263126956e-02 3.909302116317729670e-03
4.268000000000000266e-02 4.036707211535221518e+01 1.353887601042819133e-01 4.862066536253286525e-03
6.219999999999999835e-02 5.891246509830522626e+01 2.419691225623893105e-01 6.630786177272363080e-03
7.316999999999999893e-02 6.935151695866235855e+01 3.161896974764099033e-01 7.588671314871411888e-03
7.595999999999999974e-02 7.200836722020332559e+01 3.371250777904805096e-01 8.170805199905810390e-03
7.685877551020407761e-02 7.286441678618606943e+01 3.442037449965902884e-01 8.367171199745141938e-03
7.775755102040816935e-02 7.372055010884970727e+01 3.514503175377603483e-01 8.561428386462214060e-03
7.865632653061224722e-02 7.457676815113489965e+01 3.588631017968754167e-01 8.753742441576173317e-03
7.955510204081632508e-02 7.543307183542651728e+01 3.664405457153903645e-01 8.944279046606173206e-03
8.045387755102040295e-02 7.628946204652770291e+01 3.741812388351291596e-01 9.133203883071362023e-03
8.135265306122449469e-02 7.714593963450180070e+01 3.820839123438791729e-01 9.320682632490889796e-03
8.225142857142857256e-02 7.800250541738913057e+01 3.901474391245042805e-01 9.506880976383903087e-03
8.315020408163265042e-02 7.885916018380552828e+01 3.983708338073304600e-01 9.691964596269548454e-03
8.404897959183672829e-02 7.971590469542934443e+01 4.067532528255751179e-01 9.876099173666982867e-03
8.494775510204082003e-02 8.057273968938240216e+01 4.152939944736195321e-01 1.005945039009535635e-02
8.584653061224489790e-02 8.142966588051046983e+01 4.239924989679397238e-01 1.024218392707380854e-02
8.674530612244897576e-02 8.228668396357015524e+01 4.328483485105342199e-01 1.042446546612149291e-02
8.764408163265305363e-02 8.314379461532401194e+01 4.418612673547003822e-01 1.060646068875756472e-02
8.854285714285714537e-02 8.400099849655201467e+01 4.510311218730321814e-01 1.078833527650117398e-02
8.944163265306122323e-02 8.485829625398100973e+01 4.603579206275240088e-01 1.097025491087145338e-02
9.034040816326530110e-02 8.571568852213776779e+01 4.698418144416841580e-01 1.115238527338757030e-02
9.123918367346939284e-02 8.657317592512893611e+01 4.794830964745695479e-01 1.133489204556866435e-02
9.213795918367347071e-02 8.743075907835165594e+01 4.892822022966704654e-01 1.151794090893388904e-02
9.303673469387754857e-02 8.828843859013787210e+01 4.992397099675859318e-01 1.170169754500239266e-02
9.393551020408162644e-02 8.914621506333637058e+01 5.093563401154376225e-01 1.188632763529332351e-02
9.483428571428570431e-02 9.000408909683430636e+01 5.196329560179853146e-01 1.207199686132583161e-02
9.573306122448979605e-02 9.086206128702303886e+01 5.300705636854147196e-01 1.225887090461907046e-02
9.663183673469387391e-02 9.172013222920776343e+01 5.406703119447767714e-01 1.244711544669218142e-02
9.753061224489795178e-02 9.257830251896793072e+01 5.514334925260697684e-01 1.263689616906431799e-02
9.842938775510204352e-02 9.343657275346598112e+01 5.623615401499590938e-01 1.282837875325463194e-02
9.932816326530612139e-02 9.429494353271061868e+01 5.734560326171408429e-01 1.302172888078226461e-02
1.002269387755101993e-01 9.515341546077469559e+01 5.847186908993633470e-01 1.321711223316637471e-02
1.011257142857142910e-01 9.601198914697003772e+01 5.961513792321230243e-01 1.341469449192611053e-02
1.020244897959183689e-01 9.687066520698181193e+01 6.077561052090616478e-01 1.361464133858061171e-02
1.029232653061224467e-01 9.772944426396303186e+01 6.195350198780993356e-01 1.381711845464903693e-02
1.038220408163265246e-01 9.858832694959238552e+01 6.314904178393371259e-01 1.402229152165053103e-02
1.047208163265306025e-01 9.944731390509593894e+01 6.436247373447762099e-01 1.423032622110424576e-02
1.056195918367346942e-01 1.003064057822348474e+02 6.559405603999003409e-01 1.444138823452933637e-02
1.065183673469387721e-01 1.011656032442599980e+02 6.684406128671752656e-01 1.465564324344493900e-02
1.074171428571428499e-01 1.020249069668353172e+02 6.811277645715261286e-01 1.487325692937020889e-02
1.083159183673469417e-01 1.028843176389315772e+02 6.940050294078512483e-01 1.509439497382429780e-02
1.092146938775510195e-01 1.037438359636907563e+02 7.070755654506423182e-01 1.531922305832635403e-02
1.101134693877550974e-01 1.046034626592636414e+02 7.203426750657830890e-01 1.554790686439552760e-02
1.110122448979591891e-01 1.054631984596198890e+02 7.338098050245978055e-01 1.578061207355096682e-02
1.119110204081632531e-01 1.063230441153340422e+02 7.474805466202301130e-01 1.601750436731181129e-02
1.128097959183673449e-01 1.071830003943461378e+02 7.613586357864375875e-01 1.625874942719722840e-02
1.137085714285714227e-01 1.080430680826999748e+02 7.754479532188783830e-01 1.650451293472635778e-02
1.146073469387755006e-01 1.089032479852582611e+02 7.897525244989896942e-01 1.675496057141834597e-02
1.155061224489795924e-01 1.097635409263966011e+02 8.042765202205410802e-01 1.701025801879234994e-02
1.164048979591836702e-01 1.106239477506771465e+02 8.190242561189594594e-01 1.727057095836751280e-02
1.173036734693877481e-01 1.114844693235018411e+02 8.340001932035264742e-01 1.753606507166298456e-02
1.182024489795918398e-01 1.123451065317473194e+02 8.492089378925419263e-01 1.780690604019792220e-02
1.191012244897959177e-01 1.132058602843809609e+02 8.646552421515594222e-01 1.808325954549146533e-02
1.199999999999999956e-01 1.140667315130598780e+02 8.803440036347993658e-01 1.836529126906276746e-02
1.237586933817779594e-01 1.176682137857059018e+02 9.486977693127748301e-01 1.959308471466426199e-02
1.275173867635559233e-01 1.212718402881251052e+02 1.021573797623319901e+00 2.085252625934141263e-02
1.312760801453339010e-01 1.248776828782346655e+02 1.099091676652986349e+00 2.214283596863866541e-02
1.350347735271118510e-01 1.284858126925621491e+02 1.181368863729225227e+00 2.346335426367456706e-02
1.387934669088898287e-01 1.320963001533086754e+02 1.268521131367817745e+00 2.481354656835108724e-02
1.425521602906677787e-01 1.357092149869561979e+02 1.360663030308269850e+00 2.619300751011286246e-02
1.463108536724457565e-01 1.393246262533349693e+02 1.457908368360480766e+00 2.760146470937963406e-02
1.500695470542237064e-01 1.429426023841919289e+02 1.560370703900608280e+00 2.903878218836646735e-02
1.538282404360016842e-01 1.465632112304306247e+02 1.668163852953775228e+00 3.050496342626070334e-02
1.575869338177796619e-01 1.501865201172765296e+02 1.781402408888290489e+00 3.200015408450928439e-02
1.613456271995576119e-01 1.538125959067162398e+02 1.900202273822460208e+00 3.352464442318583981e-02
1.651043205813355619e-01 1.574415050666254388e+02 2.024681200912259893e+00 3.507887142696521077e-02
1.688630139631135396e-01 1.610733137460620128e+02 2.154959346747488347e+00 3.666342065707942771e-02
1.726217073448915174e-01 1.647080878562557302e+02 2.291159833136574342e+00 3.827902784370954686e-02
1.763804007266694673e-01 1.683458931568707158e+02 2.433409317606857414e+00 3.992658023154482122e-02
1.801390941084474451e-01 1.719867953471585906e+02 2.581838571988630981e+00 4.160711768968484298e-02
1.838977874902253951e-01 1.756308601616532599e+02 2.736583068488212866e+00 4.332183359564529407e-02
1.876564808720033728e-01 1.792781534700904160e+02 2.897783572688360731e+00 4.507207550193659956e-02
1.914151742537813505e-01 1.829287413812630518e+02 3.065586742943825715e+00 4.685934559249894937e-02
1.951738676355593005e-01 1.865826903505454482e+02 3.240145735666372762e+00 4.868530093518681767e-02
1.989325610173372505e-01 1.902400672908424895e+02 3.421620816017323818e+00 5.055175353548863743e-02
2.026912543991152282e-01 1.939009396867361659e+02 3.610179973547077648e+00 5.246067019573683737e-02
2.064499477808932060e-01 1.975653757116229201e+02 3.805999542340356534e+00 5.441417218320224874e-02
2.102086411626711560e-01 2.012334443476460706e+02 4.009264825243391783e+00 5.641453470966844436e-02
2.139673345444491059e-01 2.049052155082415254e+02 4.220170721765077460e+00 5.846418622434499529e-02
2.177260279262270837e-01 2.085807601631310035e+02 4.438922359258547168e+00 6.056570752129695340e-02
2.214847213080050614e-01 2.122601504656012708e+02 4.665735727002849664e+00 6.272183066193955103e-02
2.252434146897830392e-01 2.159434598819248663e+02 4.900838312816546249e+00 6.493543771257188901e-02
2.290021080715609891e-01 2.196307633227780798e+02 5.144469741846268818e+00 6.720955929639610416e-02
2.327608014533389391e-01 2.233221372765305262e+02 5.396882417183792136e+00 6.954737295899009186e-02
2.365194948351169169e-01 2.270176599442766872e+02 5.658342161974991846e+00 7.195220134577172411e-02
2.402781882168948946e-01 2.307174113764948231e+02 5.929128862693390900e+00 7.442751018960734599e-02
2.440368815986728446e-01 2.344214736112207902e+02 6.209537113259919749e+00 7.697690610638031894e-02
2.477955749804508223e-01 2.381299308136295849e+02 6.499876859699084797e+00 7.960413419604074614e-02
2.515542683622287723e-01 2.418428694169255664e+02 6.800474045030071579e+00 8.231307544641207341e-02
2.553129617440067500e-01 2.455603782644417663e+02 7.111671254099603878e+00 8.510774393682728201e-02
2.590716551257846723e-01 2.492825487528594977e+02 7.433828358071364661e+00 8.799228383850976609e-02
2.628303485075627055e-01 2.530094749764562891e+02 7.767323158295054597e+00 9.097096620850253501e-02
2.665890418893406277e-01 2.567412538722994100e+02 8.112552029286067778e+00 9.404818557388076872e-02
2.703477352711186055e-01 2.604779853663058589e+02 8.469930560555335219e+00 9.722845630296290953e-02
2.741064286528965832e-01 2.642197725200851437e+02 8.839894197036789691e+00 1.005164087602546941e-01
2.778651220346745054e-01 2.679667216784956736e+02 9.222898877868829004e+00 1.039167852419298904e-01
2.816238154164525387e-01 2.717189426178392182e+02 9.619421673294596076e+00 1.074344356887640684e-01
2.853825087982304609e-01 2.754765486946245687e+02 1.002996141945476793e+01 1.110743131735907746e-01
2.891412021800084386e-01 2.792396569948351157e+02 1.045503935085594982e+01 1.148414691605562088e-01
2.928998955617864164e-01 2.830083884836332686e+02 1.089519973030661859e+01 1.187410485336879984e-01
2.966585889435643386e-01 2.867828681554419745e+02 1.135101047612260317e+01 1.227782843925867839e-01
3.004172823253423164e-01 2.905632251843438212e+02 1.182306378641354883e+01 1.269584926133813796e-01
3.041759757071202941e-01 2.943495930747361058e+02 1.231197676027181309e+01 1.312870661734620026e-01
3.796009557947300772e-01 3.720988734342170687e+02 2.850848633353920292e+01 2.815339087455697165e-01
4.550259358823398603e-01 4.542256400194794423e+02 5.804547434156691565e+01 4.317807513176774581e-01
5.304509159699496434e-01 5.423794048162640138e+02 1.030865293072470763e+02 5.820275938897851997e-01
6.058758960575594266e-01 6.380859581539818919e+02 1.664671052374924898e+02 7.322744364618928303e-01
6.813008761451692097e-01 7.428801502705060784e+02 2.517260058550430415e+02 8.825212790340005720e-01
7.567258562327789928e-01 8.582934007098783695e+02 3.469591226310729439e+02 7.765835753625984772e-01
8.321508363203887759e-01 9.826620062664916304e+02 4.226223264812737170e+02 4.556282558516524528e-01
9.075758164079985590e-01 1.111973869271133935e+03 4.604390159791265660e+02 1.346729363407064284e-01
9.830007964956083422e-01 1.243165575899799933e+03 4.726474579285930986e+02 5.178941007606527314e-02
1.058425776583218125e+00 1.375191246806599793e+03 4.828707972156667552e+02 1.029274242332643419e-01
1.133850756670828019e+00 1.508216214239223746e+03 5.012482514218988285e+02 1.730093988076301936e-01
1.209275736758437692e+00 1.642767183931647651e+03 5.292778704280234479e+02 2.430913733819958233e-01
1.284700716846047364e+00 1.779361994333022267e+03 5.673178175516695774e+02 3.131733479563614253e-01
1.360125696933657258e+00 1.918461493533764497e+03 6.147185223133697036e+02 3.677088925589023782e-01
1.435550677021267152e+00 2.060376529229011794e+03 6.680854433865106330e+02 3.842163730317276205e-01
1.510975657108876824e+00 2.205185695631433191e+03 7.249313139371973875e+02 4.007238535045528072e-01
1.586400637196486496e+00 2.352920843020136999e+03 7.853647237694019623e+02 4.172313339773779939e-01
1.661825617284096390e+00 2.503616016322865107e+03 8.494967741305488289e+02 4.337388144502032361e-01
1.737250597371706284e+00 2.657307271402545666e+03 9.174411414272685761e+02 4.502462949230284783e-01
1.812675577459315956e+00 2.814032526091288673e+03 9.893141417131555500e+02 4.667537753958537206e-01
1.888100557546925629e+00 2.973819444053070583e+03 1.064114603507792708e+03 4.695076810399981815e-01
1.963525537634535523e+00 3.136625329421832703e+03 1.140143937426435059e+03 4.645894565222571382e-01
2.038950517722145417e+00 3.302363102088660071e+03 1.216727906117094335e+03 4.596712320045160949e-01
2.114375497809755089e+00 3.470951840819509925e+03 1.294644439969629502e+03 4.646432192537380823e-01
