# density  energy_density  pressure   sound_speed_squared  [All in nuclear units]
2.720000000000000022e-14 2.529924618736292620e-11 1.061056609100270887e-19 3.766610435412189122e-08
1.269999999999999890e-13 1.181251617980081254e-10 4.870113551826584858e-18 6.497781477172163475e-08
6.929999999999999754e-13 6.445728594625782745e-10 1.018299070687946017e-16 3.033770597342807186e-07
6.295000000000000137e-12 5.855111460395753757e-09 5.487150723824490656e-15 1.763710043904196507e-06
1.581000000000000150e-11 1.470523320212576141e-08 2.904239460150760759e-14 3.559434472327477622e-06
3.971999999999999958e-11 3.694456170323160790e-08 1.439340266754906811e-13 6.772854871245677111e-06
9.975999999999999982e-11 9.278976412613005154e-08 6.812143616221268841e-13 1.246890511177539320e-05
2.505999999999999928e-10 2.330928829758143313e-07 3.107749196951638608e-12 2.212095130576091967e-05
6.294000000000000186e-10 5.854398883216247602e-07 1.363250409771533549e-11 3.761981047239428883e-05
1.581000000000000021e-09 1.470619631082054101e-06 5.726014178088476303e-11 6.095350986710739404e-05
3.971999999999999932e-09 3.694861084648016046e-06 2.210019573374265380e-10 8.628023653304385055e-05
5.000000000000000105e-09 4.651201787816927976e-06 3.071485916280120014e-10 9.387863480799757518e-05
9.975999999999999465e-09 9.280587964640925786e-06 8.385361004129998845e-10 1.356922228656245837e-04
1.989999999999999952e-08 1.851419242998081003e-05 2.287763168863418088e-09 1.782101978513718314e-04
3.972999999999999908e-08 3.696699295748789187e-05 6.061583099087538954e-09 2.308134738384234820e-04
7.925999999999999637e-08 7.375765469301719828e-05 1.575347858094044765e-08 2.960532096713864875e-04
1.580999999999999930e-07 1.471491184379128891e-04 3.910429618672550719e-08 3.402859755131850544e-04
1.991000000000000027e-07 1.853209783927820692e-04 5.252045687899177454e-08 3.626488188833278743e-04
3.155999999999999938e-07 2.938002528823880299e-04 9.730770378831954314e-08 4.630767356912104081e-04
5.000999999999999849e-07 4.656344063839075714e-04 1.837494945860225819e-07 5.430301232045120323e-04
6.295999999999999732e-07 5.862651417037388971e-04 2.503103884558263872e-07 5.605192962670089638e-04
9.666999999999999941e-07 9.003386739730535665e-04 4.324450868778576936e-07 5.993081670211623108e-04
1.531999999999999901e-06 1.427170885631398036e-03 7.780217275717420968e-07 7.125938556504039095e-04
2.506999999999999883e-06 2.336134972129507662e-03 1.471005394641589826e-06 8.121876172121876309e-04
3.974000000000000407e-06 3.704315759716615697e-03 2.695705763844323844e-06 9.780674166779417152e-04
4.830000000000000343e-06 4.502887798316278223e-03 3.503988717694660908e-06 1.046253037768318664e-03
6.080999999999999885e-06 5.670217999231269741e-03 4.731126407333307547e-06 1.056224360839501646e-03
7.930000000000000308e-06 7.396012414119570652e-03 6.599662989063778187e-06 1.109203753630785610e-03
9.982000000000000313e-06 9.311815711689977113e-03 8.879881089227186733e-06 1.271216815433141075e-03
1.256999999999999993e-05 1.172874412604260098e-02 1.207676739913533738e-05 1.374195438212825332e-03
1.521999999999999997e-05 1.420427250933824909e-02 1.547541302213394990e-05 1.371610497379100249e-03
1.991000000000000080e-05 1.858690797761085312e-02 2.160710455847765458e-05 1.426578142835871997e-03
2.506999999999999883e-05 2.341050104039446925e-02 2.908031724375689851e-05 1.672007475975408053e-03
2.790999999999999875e-05 2.606604784714952258e-02 3.357009132255487721e-05 1.709425557744154774e-03
3.806999999999999973e-05 3.556967988784798945e-02 4.986781576435106434e-05 1.720407281314112165e-03
5.063000000000000145e-05 4.732434580343149871e-02 7.073400252905581275e-05 1.829889149838781265e-03
6.592000000000000583e-05 6.164112392498975052e-02 9.765037643900635188e-05 1.930242980462695823e-03
8.433000000000000066e-05 7.888776783401378612e-02 1.317235490470395893e-04 2.021055815200022837e-03
1.062000000000000064e-04 9.938561165478684845e-02 1.740088341640037047e-04 2.104789529260958983e-03
1.321000000000000126e-04 1.236720406455826121e-01 2.260189757651373944e-04 2.178291718403657477e-03
1.623999999999999901e-04 1.520974545104751274e-01 2.888169908545388338e-04 2.240170365918073281e-03
1.689999999999999879e-04 1.582907717069566844e-01 3.027354772999506964e-04 2.254509350360745651e-03
1.758999999999999930e-04 1.647661861691531171e-01 3.173785841705756782e-04 2.268169273277113179e-03
1.830000000000000029e-04 1.714298948183871907e-01 3.325196584577469103e-04 2.276170334580628063e-03
1.901999999999999882e-04 1.781880600978280049e-01 3.479577791899843742e-04 2.292561569242367037e-03
1.977000000000000079e-04 1.852284385240466902e-01 3.641242634600037713e-04 2.299943765467868384e-03
2.054000000000000053e-04 1.924572004474696396e-01 3.808304060475003897e-04 2.322187632288155723e-03
2.079000000000000119e-04 1.948043378760714872e-01 3.864137987380476553e-04 2.435429768083530178e-03
2.081999999999999921e-04 1.950859988578999005e-01 3.870314100985603909e-04 1.950065624557156818e-03
2.090999999999999868e-04 1.959309855029948977e-01 3.881261957135444685e-04 6.411875526909013856e-04
2.159999999999999919e-04 2.024093317906446865e-01 3.940874488768042125e-04 1.199166870571831411e-03
2.231000000000000019e-04 2.090756740932291913e-01 4.013938420547467825e-04 9.928616047829054436e-04
2.311000000000000066e-04 2.165873044433437034e-01 4.085241694843774404e-04 9.056166966301716637e-04
2.401000000000000085e-04 2.250381721984245909e-01 4.159700687886608468e-04 8.565463878902855599e-04
2.500000000000000052e-04 2.343344406330727658e-01 4.237602369176299592e-04 8.194318812157330018e-04
2.642999999999999733e-04 2.477629128650125634e-01 4.345596643180389446e-04 7.890063723638815647e-04
3.052999999999999941e-04 2.862671839140227270e-01 4.644058706720978241e-04 7.612775562167708662e-04
3.533000000000000224e-04 3.313503829113090826e-01 4.987577676308450197e-04 7.626578558207241024e-04
4.075999999999999871e-04 3.823564017794535141e-01 5.381334366106255759e-04 7.813048116943254948e-04
4.679999999999999915e-04 4.390986251953180042e-01 5.832692638200615834e-04 8.096035963157804938e-04
5.341000000000000261e-04 5.012024644415256081e-01 6.346556894078133086e-04 8.452514814113673558e-04
6.059000000000000366e-04 5.686690698184251325e-01 6.930641302632923034e-04 8.862253587289389486e-04
7.661000000000000275e-04 7.192254882508629654e-01 8.328184776562496576e-04 9.702780530519144065e-04
1.262000000000000101e-03 1.185459127778160093e+00 1.338484980802662205e-03 1.198863597978450275e-03
1.894999999999999983e-03 1.780909071169781921e+00 2.123481960401060308e-03 1.437771491635827115e-03
2.673000000000000029e-03 2.513147344746868850e+00 3.261860252001994032e-03 1.671524566936786766e-03
3.605999999999999830e-03 3.391736073717691369e+00 4.828136641022434151e-03 1.893900408978071038e-03
4.709999999999999777e-03 4.431905410739045870e+00 6.903512974832482635e-03 2.096551352830673849e-03
7.496000000000000059e-03 7.058993649504918366e+00 1.289742191321638018e-02 2.466596387205546859e-03
1.119999999999999989e-02 1.055540362104863661e+01 2.212077014004794340e-02 2.809304433764861584e-03
1.600000000000000033e-02 1.509117352747679952e+01 3.559566804390756900e-02 3.132325055719984222e-03
2.206999999999999934e-02 2.083310616724802244e+01 5.457322122755020599e-02 3.477840948757840792e-03
2.947999999999999926e-02 2.785007348564149154e+01 8.049103664263126956e-02 3.909302116317729670e-03
4.268000000000000266e-02 4.036707211535221518e+01 1.353887601042819133e-01 4.862066536253286525e-03
6.219999999999999835e-02 5.891246509830522626e+01 2.419691225623893105e-01 6.630786177272363080e-03
7.316999999999999893e-02 6.935151695866235855e+01 3.161896974764099033e-01 7.588671314871411888e-03
7.595999999999999974e-02 7.200836722020332559e+01 3.371250777904805096e-01 8.170805199905812125e-03
7.685877551020407761e-02 7.286441682197711600e+01 3.442098700603850592e-01 8.381479867894401151e-03
7.775755102040816935e-02 7.372055034636163384e+01 3.514787957709797905e-01 8.599333421057326829e-03
7.865632653061224722e-02 7.457676898667430976e+01 3.589379282307580965e-01 8.824086170948505434e-03
7.955510204081632508e-02 7.543307397701580896e+01 3.665931042036295051e-01 9.055458429121861913e-03
8.045387755102040295e-02 7.628946658821423910e+01 3.744499238624480197e-01 9.293170507131324684e-03
8.135265306122449469e-02 7.714594812395118595e+01 3.825137507385558133e-01 9.536942716530816960e-03
8.225142857142857256e-02 7.800251991705746946e+01 3.907897116669228899e-01 9.786495368874255016e-03
8.315020408163265042e-02 7.885918332597074709e+01 3.992826967265167282e-01 1.004154877571556553e-02
8.404897959183672829e-02 7.971593973134550026e+01 4.079973591755773343e-01 1.030182324860867520e-02
8.494775510204082003e-02 8.057279053280747405e+01 4.169381153815214791e-01 1.056703909910750548e-02
8.584653061224489790e-02 8.142973714584383060e+01 4.261091447452361458e-01 1.083691663876597266e-02
8.674530612244897576e-02 8.228678099882441188e+01 4.355143896195626252e-01 1.111117617913800690e-02
8.764408163265305363e-02 8.314392353014370940e+01 4.451575552218028364e-01 1.138953803177753313e-02
8.854285714285714537e-02 8.400116618548045722e+01 4.550421095401169236e-01 1.167172250823847457e-02
8.944163265306122323e-02 8.485851041516720272e+01 4.651712832337082104e-01 1.195744992007474576e-02
9.034040816326530110e-02 8.571595767166421354e+01 4.755480695267240709e-01 1.224644057884027859e-02
9.123918367346939284e-02 8.657350940713300247e+01 4.861752240958228666e-01 1.253841479608899454e-02
9.213795918367347071e-02 8.743116707110473840e+01 4.970552649513864107e-01 1.283309288337481160e-02
9.303673469387754857e-02 8.828893210823814286e+01 5.081904723123814582e-01 1.313019515225165648e-02
9.393551020408162644e-02 8.914680595616226810e+01 5.195828884748907583e-01 1.342944191427345932e-02
9.483428571428570431e-02 9.000479004340159861e+01 5.312343176743609119e-01 1.373055348099413119e-02
9.573306122448979605e-02 9.086288578737782018e+01 5.431463259416310363e-01 1.403325016396760917e-02
9.663183673469387391e-02 9.172109459248518704e+01 5.553202409528227301e-01 1.433725227474779915e-02
9.753061224489795178e-02 9.257941784823628950e+01 5.677571518731958644e-01 1.464228012488863646e-02
9.842938775510204352e-02 9.343785692747501059e+01 5.804579091950813341e-01 1.494805402594404781e-02
9.932816326530612139e-02 9.429641318465246513e+01 5.934231245700258839e-01 1.525429428946794945e-02
1.002269387755101993e-01 9.515508795416458554e+01 6.066531706352957798e-01 1.556072122701425420e-02
1.011257142857142910e-01 9.601388254874714789e+01 6.201481808348969782e-01 1.586705515013691128e-02
1.020244897959183689e-01 9.687279825792688825e+01 6.339080492352862084e-01 1.617301637038982137e-02
1.029232653061224467e-01 9.773183634652488649e+01 6.479324303359605963e-01 1.647832519932691461e-02
1.038220408163265246e-01 9.859099805321086762e+01 6.622207388751190082e-01 1.678270194850211769e-02
1.047208163265306025e-01 9.945028458910597635e+01 6.767721496306063900e-01 1.708586692946935034e-02
1.056195918367346942e-01 1.003096971364317938e+02 6.915855972163589271e-01 1.738754045378254273e-02
1.065183673469387721e-01 1.011692368472030097e+02 7.066597758745779556e-01 1.768744283299560419e-02
1.074171428571428499e-01 1.020289048419633389e+02 7.219931392638736511e-01 1.798529437866246833e-02
1.083159183673469417e-01 1.028887022085614262e+02 7.375839002436218594e-01 1.828081540233705490e-02
1.092146938775510195e-01 1.037486300009655196e+02 7.534300306547914161e-01 1.857372621557329059e-02
1.101134693877550974e-01 1.046086892381155451e+02 7.695292610975086323e-01 1.886374712992509861e-02
1.110122448979591891e-01 1.054688809028110796e+02 7.858790807056263983e-01 1.915059845694639523e-02
1.119110204081632531e-01 1.063292059406325478e+02 8.024767369185782373e-01 1.943400050819111408e-02
1.128097959183673449e-01 1.071896652588966106e+02 8.193192352508085197e-01 1.971367359521316448e-02
1.137085714285714227e-01 1.080502597256420927e+02 8.364033390590611683e-01 1.998933802956648353e-02
1.146073469387755006e-01 1.089109901686457675e+02 8.537255693078394936e-01 2.026071412280498751e-02
1.155061224489795924e-01 1.097718573744686239e+02 8.712822043333325883e-01 2.052752218648260310e-02
1.164048979591836702e-01 1.106328620875282525e+02 8.890692796061232528e-01 2.078948253215324657e-02
1.173036734693877481e-01 1.114940050091993982e+02 9.070825874929985266e-01 2.104631547137084460e-02
1.182024489795918398e-01 1.123552867969393390e+02 9.253176770181786859e-01 2.129774131568933429e-02
1.191012244897959177e-01 1.132167080634387304e+02 9.437698536242974390e-01 2.154348037666261803e-02
1.199999999999999956e-01 1.140782693757959692e+02 9.624341789334663888e-01 2.178325296584462598e-02
1.234889901475074853e-01 1.174241390135938587e+02 1.036824609224807903e+00 2.268354399189844578e-02
1.269779802950149750e-01 1.207721544945575118e+02 1.114346025136150553e+00 2.362509002008147951e-02
1.304669704425224508e-01 1.241223448843253010e+02 1.195144875835833398e+00 2.461002992599770067e-02
1.339559605900299544e-01 1.274747417131555665e+02 1.279375328605537598e+00 2.564057746285727107e-02
1.374449507375374302e-01 1.308293789881163320e+02 1.367199561055160828e+00 2.671902333557508655e-02
1.409339408850449338e-01 1.341862932115777767e+02 1.458788063015894698e+00 2.784773714052235158e-02
1.444229310325524096e-01 1.375455234054635696e+02 1.554319947889570397e+00 2.902916917819319334e-02
1.479119211800599132e-01 1.409071111407919261e+02 1.653983273264637122e+00 3.026585214361619466e-02
1.514009113275673890e-01 1.442711005720963158e+02 1.757975370634547341e+00 3.156040269728528636e-02
1.548899014750748648e-01 1.476375384763753971e+02 1.866503184074120858e+00 3.291552291762510352e-02
1.583788916225823684e-01 1.510064742962573803e+02 1.979783617744318214e+00 3.433400163448212944e-02
1.618678817700898720e-01 1.543779601871112845e+02 2.098043892106641550e+00 3.581871564180203610e-02
1.653568719175973478e-01 1.577520510678630785e+02 2.221521908735540674e+00 3.737263078647722059e-02
1.688458620651048236e-01 1.611288046753090271e+02 2.350466623621207951e+00 3.899880292929850528e-02
1.723348522126123272e-01 1.645082816217342838e+02 2.485138428856383808e+00 4.070037877300126949e-02
1.758238423601198031e-01 1.678905454556761470e+02 2.625809542599523816e+00 4.248059655153849784e-02
1.793128325076273066e-01 1.712756627256783020e+02 2.772764407203174741e+00 4.434278657393290329e-02
1.828018226551347825e-01 1.746637030469043168e+02 2.926300095390766298e+00 4.629037161534164946e-02
1.862908128026422583e-01 1.780547391704903077e+02 3.086726724357597540e+00 4.832686714731069394e-02
1.897798029501497619e-01 1.814488470555261301e+02 3.254367877662464714e+00 5.045588139858642185e-02
1.932687930976572654e-01 1.848461059435654477e+02 3.429561034765476357e+00 5.268111523729705065e-02
1.967577832451647413e-01 1.882465984355727926e+02 3.612658008055104730e+00 5.500636186480522410e-02
2.002467733926722171e-01 1.916504105712226078e+02 3.804025387193514351e+00 5.743550631106874443e-02
2.037357635401797207e-01 1.950576319104718834e+02 4.004044990593818909e+00 5.997252472093037023e-02
2.072247536876872243e-01 1.984683556173299905e+02 4.213114323826163243e+00 6.262148342038677262e-02
2.107137438351947001e-01 2.018826785457567041e+02 4.431647044731508167e+00 6.538653775156733072e-02
2.142027339827021759e-01 2.053007013276213684e+02 4.660073435002708209e+00 6.827193066488623785e-02
2.176917241302096517e-01 2.087225284626578343e+02 4.898840877972036267e+00 7.128199105661667256e-02
2.211807142777171553e-01 2.121482684103513634e+02 5.148414342322779724e+00 7.442113183998361192e-02
2.246697044252246589e-01 2.155780336836974698e+02 5.409276871419894661e+00 7.769384773777761322e-02
2.281586945727321347e-01 2.190119409447717942e+02 5.681930077931124146e+00 8.110471278446819421e-02
2.316476847202396105e-01 2.224501111020499877e+02 5.966894643385429298e+00 8.465837752583783848e-02
2.351366748677471141e-01 2.258926694094158734e+02 6.264710822290148862e+00 8.835956590428004076e-02
2.386256650152546177e-01 2.293397455668014402e+02 6.575938950402119509e+00 9.221307181810056708e-02
2.421146551627620935e-01 2.327914738223914526e+02 6.901159956721024002e+00 9.622375534344879133e-02
2.456036453102695694e-01 2.362479930763347227e+02 7.240975878745613770e+00 1.003965386078728289e-01
2.490926354577770729e-01 2.397094469858944308e+02 7.596010380505267001e+00 1.047364013049591619e-01
2.525816256052845210e-01 2.431759840719749945e+02 7.966909272850644541e+00 1.092483758400766281e-01
2.560706157527920523e-01 2.466477578269558535e+02 8.354341035458185516e+00 1.139375420979065606e-01
2.595596059002995282e-01 2.501249268237621379e+02 8.758997339973534579e+00 1.188090218232039641e-01
2.630485960478070595e-01 2.536076548261036123e+02 9.181593573689680099e+00 1.238679726071071768e-01
2.665375861953145353e-01 2.570961108998021700e+02 9.622869363125319708e+00 1.291195814722907176e-01
2.700265763428220112e-01 2.605904695251376211e+02 1.008358909683954430e+01 1.345690580513501933e-01
2.735155664903294870e-01 2.640909107101258542e+02 1.056454244678871568e+01 1.402216273540046187e-01
2.770045566378369628e-01 2.675976201046495362e+02 1.106654488750193366e+01 1.460825221200197366e-01
2.804935467853444386e-01 2.711107891153573064e+02 1.159043821232190474e+01 1.521569747561781760e-01
2.839825369328519145e-01 2.746306150212385546e+02 1.213709104592881616e+01 1.584502088571558276e-01
2.874715270803594458e-01 2.781573010897853919e+02 1.270739935233605422e+01 1.649674303118068286e-01
2.909605172278669216e-01 2.816910566936459190e+02 1.330228693751817204e+01 1.717138179981028134e-01
3.666552005497472067e-01 3.609253306384449047e+02 3.737379631195352658e+01 4.252234016888338797e-01
4.423498838716274362e-01 4.467626322356043715e+02 7.582102803105334488e+01 4.688820394276136949e-01
5.180445671935076657e-01 5.396437935875550238e+02 1.181877872594510563e+02 4.453201589222050560e-01
5.937392505153880062e-01 6.387793729472297173e+02 1.610940964643766904e+02 4.217582784167963617e-01
6.694339338372683468e-01 7.433977531317591456e+02 2.039250236048240481e+02 3.981963979113877228e-01
7.451286171591484653e-01 8.528386479344807185e+02 2.461644243889196559e+02 3.746345174059791394e-01
8.208233004810288058e-01 9.665279707746916529e+02 2.873748469494379378e+02 3.510726369005704450e-01
8.965179838029091464e-01 1.083960463858153162e+03 3.271832497045396053e+02 3.275107563951618062e-01
9.722126671247892649e-01 1.204687182512399659e+03 3.652704082242760251e+02 3.039488758897531673e-01
1.047907350446669605e+00 1.328273259571941480e+03 4.001669642867202583e+02 2.614305247725473014e-01
1.123602033768549946e+00 1.454201613967270532e+03 4.299307579146369562e+02 2.118282708785570456e-01
1.199296717090430064e+00 1.581937673802906147e+03 4.537964201951358518e+02 1.622260169845669286e-01
1.274991400412310405e+00 1.710986366940526068e+03 4.715148691313472682e+02 1.126237630905766451e-01
1.350686083734190746e+00 1.841270904723073045e+03 4.985856981493604962e+02 3.016006475301699630e-01
1.426380767056070864e+00 1.973932869528874107e+03 5.763589814170396721e+02 8.570973074838972305e-01
1.502075450377951205e+00 2.112272475286867120e+03 6.829324354039169975e+02 6.896858933039338169e-01
1.577770133699831545e+00 2.255567193918979683e+03 7.811551900572519571e+02 6.815645037336288681e-01
1.653464817021711664e+00 2.403635513324654312e+03 8.827849268963857412e+02 6.910116697303558819e-01
1.729159500343592004e+00 2.556463487757263465e+03 9.891254243762992928e+02 7.004588357270828958e-01
1.804854183665472345e+00 2.714050892430089334e+03 1.100266439428677359e+03 7.099060017238099096e-01
1.880548866987352463e+00 2.876401345850489633e+03 1.216300472441532520e+03 7.193531677205368124e-01
1.956243550309232804e+00 3.043521953460837722e+03 1.337322653871907050e+03 7.288003337172638263e-01
2.031938233631113366e+00 3.215423002520727550e+03 1.463430651738518918e+03 7.382474997139908401e-01
2.107632916952993263e+00 3.392117699381298735e+03 1.594724596293760669e+03 7.476946657107178540e-01
