# density  energy_density  pressure   sound_speed_squared  [All in nuclear units]
2.720000000000000022e-14 2.529924618736292620e-11 1.061056609100270887e-19 3.766610435412189122e-08
1.269999999999999890e-13 1.181251617980081254e-10 4.870113551826584858e-18 6.497781477172163475e-08
6.929999999999999754e-13 6.445728594625782745e-10 1.018299070687946017e-16 3.033770597342807186e-07
6.295000000000000137e-12 5.855111460395753757e-09 5.487150723824490656e-15 1.763710043904196507e-06
1.581000000000000150e-11 1.470523320212576141e-08 2.904239460150760759e-14 3.559434472327477622e-06
3.971999999999999958e-11 3.694456170323160790e-08 1.439340266754906811e-13 6.772854871245677111e-06
9.975999999999999982e-11 9.278976412613005154e-08 6.812143616221268841e-13 1.246890511177539320e-05
2.505999999999999928e-10 2.330928829758143313e-07 3.107749196951638608e-12 2.212095130576091967e-05
6.294000000000000186e-10 5.854398883216247602e-07 1.363250409771533549e-11 3.761981047239428883e-05
1.581000000000000021e-09 1.470619631082054101e-06 5.726014178088476303e-11 6.095350986710739404e-05
3.971999999999999932e-09 3.694861084648016046e-06 2.210019573374265380e-10 8.628023653304385055e-05
5.000000000000000105e-09 4.651201787816927976e-06 3.071485916280120014e-10 9.387863480799757518e-05
9.975999999999999465e-09 9.280587964640925786e-06 8.385361004129998845e-10 1.356922228656245837e-04
1.989999999999999952e-08 1.851419242998081003e-05 2.287763168863418088e-09 1.782101978513718314e-04
3.972999999999999908e-08 3.696699295748789187e-05 6.061583099087538954e-09 2.308134738384234820e-04
7.925999999999999637e-08 7.375765469301719828e-05 1.575347858094044765e-08 2.960532096713864875e-04
1.580999999999999930e-07 1.471491184379128891e-04 3.910429618672550719e-08 3.402859755131850544e-04
1.991000000000000027e-07 1.853209783927820692e-04 5.252045687899177454e-08 3.626488188833278743e-04
3.155999999999999938e-07 2.938002528823880299e-04 9.730770378831954314e-08 4.630767356912104081e-04
5.000999999999999849e-07 4.656344063839075714e-04 1.837494945860225819e-07 5.430301232045120323e-04
6.295999999999999732e-07 5.862651417037388971e-04 2.503103884558263872e-07 5.605192962670089638e-04
9.666999999999999941e-07 9.003386739730535665e-04 4.324450868778576936e-07 5.993081670211623108e-04
1.531999999999999901e-06 1.427170885631398036e-03 7.780217275717420968e-07 7.125938556504039095e-04
2.506999999999999883e-06 2.336134972129507662e-03 1.471005394641589826e-06 8.121876172121876309e-04
3.974000000000000407e-06 3.704315759716615697e-03 2.695705763844323844e-06 9.780674166779417152e-04
4.830000000000000343e-06 4.502887798316278223e-03 3.503988717694660908e-06 1.046253037768318664e-03
6.080999999999999885e-06 5.670217999231269741e-03 4.731126407333307547e-06 1.056224360839501646e-03
7.930000000000000308e-06 7.396012414119570652e-03 6.599662989063778187e-06 1.109203753630785610e-03
9.982000000000000313e-06 9.311815711689977113e-03 8.879881089227186733e-06 1.271216815433141075e-03
1.256999999999999993e-05 1.172874412604260098e-02 1.207676739913533738e-05 1.374195438212825332e-03
1.521999999999999997e-05 1.420427250933824909e-02 1.547541302213394990e-05 1.371610497379100249e-03
1.991000000000000080e-05 1.858690797761085312e-02 2.160710455847765458e-05 1.426578142835871997e-03
2.506999999999999883e-05 2.341050104039446925e-02 2.908031724375689851e-05 1.672007475975408053e-03
2.790999999999999875e-05 2.606604784714952258e-02 3.357009132255487721e-05 1.709425557744154774e-03
3.806999999999999973e-05 3.556967988784798945e-02 4.986781576435106434e-05 1.720407281314112165e-03
5.063000000000000145e-05 4.732434580343149871e-02 7.073400252905581275e-05 1.829889149838781265e-03
6.592000000000000583e-05 6.164112392498975052e-02 9.765037643900635188e-05 1.930242980462695823e-03
8.433000000000000066e-05 7.888776783401378612e-02 1.317235490470395893e-04 2.021055815200022837e-03
1.062000000000000064e-04 9.938561165478684845e-02 1.740088341640037047e-04 2.104789529260958983e-03
1.321000000000000126e-04 1.236720406455826121e-01 2.260189757651373944e-04 2.178291718403657477e-03
1.623999999999999901e-04 1.520974545104751274e-01 2.888169908545388338e-04 2.240170365918073281e-03
1.689999999999999879e-04 1.582907717069566844e-01 3.027354772999506964e-04 2.254509350360745651e-03
1.758999999999999930e-04 1.647661861691531171e-01 3.173785841705756782e-04 2.268169273277113179e-03
1.830000000000000029e-04 1.714298948183871907e-01 3.325196584577469103e-04 2.276170334580628063e-03
1.901999999999999882e-04 1.781880600978280049e-01 3.479577791899843742e-04 2.292561569242367037e-03
1.977000000000000079e-04 1.852284385240466902e-01 3.641242634600037713e-04 2.299943765467868384e-03
2.054000000000000053e-04 1.924572004474696396e-01 3.808304060475003897e-04 2.322187632288155723e-03
2.079000000000000119e-04 1.948043378760714872e-01 3.864137987380476553e-04 2.435429768083530178e-03
2.081999999999999921e-04 1.950859988578999005e-01 3.870314100985603909e-04 1.950065624557156818e-03
2.090999999999999868e-04 1.959309855029948977e-01 3.881261957135444685e-04 6.411875526909013856e-04
2.159999999999999919e-04 2.024093317906446865e-01 3.940874488768042125e-04 1.199166870571831411e-03
2.231000000000000019e-04 2.090756740932291913e-01 4.013938420547467825e-04 9.928616047829054436e-04
2.311000000000000066e-04 2.165873044433437034e-01 4.085241694843774404e-04 9.056166966301716637e-04
2.401000000000000085e-04 2.250381721984245909e-01 4.159700687886608468e-04 8.565463878902855599e-04
2.500000000000000052e-04 2.343344406330727658e-01 4.237602369176299592e-04 8.194318812157330018e-04
2.642999999999999733e-04 2.477629128650125634e-01 4.345596643180389446e-04 7.890063723638815647e-04
3.052999999999999941e-04 2.862671839140227270e-01 4.644058706720978241e-04 7.612775562167708662e-04
3.533000000000000224e-04 3.313503829113090826e-01 4.987577676308450197e-04 7.626578558207241024e-04
4.075999999999999871e-04 3.823564017794535141e-01 5.381334366106255759e-04 7.813048116943254948e-04
4.679999999999999915e-04 4.390986251953180042e-01 5.832692638200615834e-04 8.096035963157804938e-04
5.341000000000000261e-04 5.012024644415256081e-01 6.346556894078133086e-04 8.452514814113673558e-04
6.059000000000000366e-04 5.686690698184251325e-01 6.930641302632923034e-04 8.862253587289389486e-04
7.661000000000000275e-04 7.192254882508629654e-01 8.328184776562496576e-04 9.702780530519144065e-04
1.262000000000000101e-03 1.185459127778160093e+00 1.338484980802662205e-03 1.198863597978450275e-03
1.894999999999999983e-03 1.780909071169781921e+00 2.123481960401060308e-03 1.437771491635827115e-03
2.673000000000000029e-03 2.513147344746868850e+00 3.261860252001994032e-03 1.671524566936786766e-03
3.605999999999999830e-03 3.391736073717691369e+00 4.828136641022434151e-03 1.893900408978071038e-03
4.709999999999999777e-03 4.431905410739045870e+00 6.903512974832482635e-03 2.096551352830673849e-03
7.496000000000000059e-03 7.058993649504918366e+00 1.289742191321638018e-02 2.466596387205546859e-03
1.119999999999999989e-02 1.055540362104863661e+01 2.212077014004794340e-02 2.809304433764861584e-03
1.600000000000000033e-02 1.509117352747679952e+01 3.559566804390756900e-02 3.132325055719984222e-03
2.206999999999999934e-02 2.083310616724802244e+01 5.457322122755020599e-02 3.477840948757840792e-03
2.947999999999999926e-02 2.785007348564149154e+01 8.049103664263126956e-02 3.909302116317729670e-03
4.268000000000000266e-02 4.036707211535221518e+01 1.353887601042819133e-01 4.862066536253286525e-03
6.219999999999999835e-02 5.891246509830522626e+01 2.419691225623893105e-01 6.630786177272363080e-03
7.316999999999999893e-02 6.935151695866235855e+01 3.161896974764099033e-01 7.588671314871411888e-03
7.595999999999999974e-02 7.200836722020332559e+01 3.371250777904805096e-01 8.170805199905810390e-03
7.685877551020407761e-02 7.286441678261557797e+01 3.442031339652300015e-01 8.365743778567982791e-03
7.775755102040816935e-02 7.372055008500959161e+01 3.514474513053907900e-01 8.557587989336794959e-03
7.865632653061224722e-02 7.457676806659998192e+01 3.588554823462546950e-01 8.746481419012288802e-03
7.955510204081632508e-02 7.543307161672066741e+01 3.664248019049666794e-01 8.932567654394514903e-03
8.045387755102040295e-02 7.628946157789734173e+01 3.741531071040428702e-01 9.115990282283522109e-03
8.135265306122449469e-02 7.714593874878305257e+01 3.820382173990693464e-01 9.296892889479361002e-03
8.225142857142857256e-02 7.800250388696413495e+01 3.900780746102482932e-01 9.475419062782068289e-03
8.315020408163265042e-02 7.885915771164390264e+01 3.982707429574878777e-01 9.651712388991701488e-03
8.404897959183672829e-02 7.971590090621076286e+01 4.066144090987518500e-01 9.825916454908300776e-03
8.494775510204082003e-02 8.057273412069717722e+01 4.151073821714134637e-01 9.998174847331916734e-03
8.584653061224489790e-02 8.142965797413407358e+01 4.237480938363758498e-01 1.016863115306259648e-02
8.674530612244897576e-02 8.228667305680851030e+01 4.325350983247442938e-01 1.033742895890038711e-02
8.764408163265305363e-02 8.314377993242689513e+01 4.414670724868504093e-01 1.050471185164533403e-02
8.854285714285714537e-02 8.400097914019076484e+01 4.505428158434500729e-01 1.067062341809748606e-02
8.944163265306122323e-02 8.485827119678873487e+01 4.597612506389294196e-01 1.083530724505689380e-02
9.034040816326530110e-02 8.571565659830883988e+01 4.691214218963725702e-01 1.099890691932359568e-02
9.123918367346939284e-02 8.657313582207507352e+01 4.786224974743540361e-01 1.116156602769764923e-02
9.213795918367347071e-02 8.743070932841241927e+01 4.882637681253353401e-01 1.132342815697909462e-02
9.303673469387754857e-02 8.828837756234356959e+01 4.980446475555592167e-01 1.148463689396797896e-02
9.393551020408162644e-02 8.914614095522053105e+01 5.079646724863411400e-01 1.164533582546435457e-02
9.483428571428570431e-02 9.000399992629456847e+01 5.180235027166746331e-01 1.180566853826826336e-02
9.573306122448979605e-02 9.086195488422676192e+01 5.282209211870737553e-01 1.196577861917975938e-02
9.663183673469387391e-02 9.172000622854316987e+01 5.385568340445863189e-01 1.212580965499888107e-02
9.753061224489795178e-02 9.257815435103591994e+01 5.490312707089228805e-01 1.228590523252568595e-02
9.842938775510204352e-02 9.343639963711306962e+01 5.596443839396506581e-01 1.244620893856021246e-02
9.932816326530612139e-02 9.429474246710078944e+01 5.703964499044131831e-01 1.260686435990250945e-02
1.002269387755101993e-01 9.515318321749772679e+01 5.812878682481448234e-01 1.276801508335262750e-02
1.011257142857142910e-01 9.601172226218582750e+01 5.923191621632515336e-01 1.292980469571061025e-02
1.020244897959183689e-01 9.687035997359876660e+01 6.034909784607412897e-01 1.309237678377651003e-02
1.029232653061224467e-01 9.772909672384926694e+01 6.148040876422924406e-01 1.325587493435036526e-02
1.038220408163265246e-01 9.858793288581829017e+01 6.262593839732512047e-01 1.342044273423223175e-02
1.047208163265306025e-01 9.944686883420649792e+01 6.378578855565605332e-01 1.358622377022215139e-02
1.056195918367346942e-01 1.003059049465510526e+02 6.496007344076237811e-01 1.375336162912017823e-02
1.065183673469387721e-01 1.011650416042076586e+02 6.614891965301123999e-01 1.392199989772635246e-02
1.074171428571428499e-01 1.020242791933007851e+02 6.735246619927355294e-01 1.409228216284072119e-02
1.083159183673469417e-01 1.028836181056419292e+02 6.857086450069875827e-01 1.426435201126333673e-02
1.092146938775510195e-01 1.037430587396188884e+02 6.980427840058981426e-01 1.443835302979424445e-02
1.101134693877550974e-01 1.046026015010560144e+02 7.105288417238151411e-01 1.461442880523348802e-02
1.110122448979591891e-01 1.054622468040470409e+02 7.231687052772488578e-01 1.479272292438112493e-02
1.119110204081632531e-01 1.063219950717612363e+02 7.359643862468141506e-01 1.497337897403718671e-02
1.128097959183673449e-01 1.071818467372253139e+02 7.489180207603131079e-01 1.515654054100173259e-02
1.137085714285714227e-01 1.080418022440800314e+02 7.620318695769925377e-01 1.534235121207480623e-02
1.146073469387755006e-01 1.089018620473141681e+02 7.753083181730316964e-01 1.553095457405645301e-02
1.155061224489795924e-01 1.097620266139758058e+02 7.887498768283019990e-01 1.572249421374672523e-02
1.164048979591836702e-01 1.106222964238626361e+02 8.023591807144516697e-01 1.591711371794566482e-02
1.173036734693877481e-01 1.114826719701907649e+02 8.161389899843733975e-01 1.611495667345332061e-02
1.182024489795918398e-01 1.123431537602448032e+02 8.300921898631070661e-01 1.631616666706974320e-02
1.191012244897959177e-01 1.132037423160079754e+02 8.442217907402390642e-01 1.652088728559497621e-02
1.199999999999999956e-01 1.140644381747745371e+02 8.585309282638622363e-01 1.672926211582906678e-02
1.231738742050427909e-01 1.171047119265498395e+02 9.105512058749994919e-01 1.749138327640954033e-02
1.263477484100855863e-01 1.201463566976967456e+02 9.649562328015408585e-01 1.828189405081867211e-02
1.295216226151283956e-01 1.231893990710041891e+02 1.021835420646614923e+00 1.910105432038440923e-02
1.326954968201711771e-01 1.262338665298285747e+02 1.081279182141129613e+00 1.994912959101143371e-02
1.358693710252139863e-01 1.292797874177396693e+02 1.143378959793581728e+00 2.082639306724971134e-02
1.390432452302567956e-01 1.323271909026822755e+02 1.208227260920443413e+00 2.173312756929521306e-02
1.422171194352995771e-01 1.353761069452782806e+02 1.275917698623762364e+00 2.266962730665265588e-02
1.453909936403423864e-01 1.384265662709364619e+02 1.346545038322934928e+00 2.363619952068504726e-02
1.485648678453851679e-01 1.414786003454703689e+02 1.420205249483722953e+00 2.463316600697866565e-02
1.517387420504279771e-01 1.445322413539581135e+02 1.496995562220050147e+00 2.566086452732408221e-02
1.549126162554707586e-01 1.475875221826027826e+02 1.577014528473337895e+00 2.671965012013148566e-02
1.580864904605135679e-01 1.506444764033776949e+02 1.660362087500647510e+00 2.780989631723820854e-02
1.612603646655563772e-01 1.537031382612604204e+02 1.747139635426877557e+00 2.893199627430714793e-02
1.644342388705991587e-01 1.567635426638796901e+02 1.837450098638168994e+00 3.008636382134639853e-02
1.676081130756419679e-01 1.598257251734121667e+02 1.931398010813607513e+00 3.127343443928628369e-02
1.707819872806847494e-01 1.628897220005859765e+02 2.029089593410581482e+00 3.249366616802063651e-02
1.739558614857275587e-01 1.659555700006557117e+02 2.130632839435948167e+00 3.374754045084716464e-02
1.771297356907703402e-01 1.690233066712278855e+02 2.236137600350541099e+00 3.503556291981749227e-02
1.803036098958131495e-01 1.720929701518273021e+02 2.345715675968824687e+00 3.635826412612579162e-02
1.834774841008559587e-01 1.751645992251010000e+02 2.459480907228591917e+00 3.771620021932031719e-02
1.866513583058987402e-01 1.782382333195676267e+02 2.577549271717828105e+00 3.910995357880912154e-02
1.898252325109415217e-01 1.813139125138260681e+02 2.700038981857121101e+00 4.054013340084750699e-02
1.929991067159843587e-01 1.843916775421473062e+02 2.827070585646517920e+00 4.200737624393362929e-02
1.961729809210271402e-01 1.874715698013734482e+02 2.958767069895501756e+00 4.351234653530171304e-02
1.993468551260699217e-01 1.905536313590607449e+02 3.095253965863928425e+00 4.505573704098202875e-02
2.025207293311127310e-01 1.936379049628047255e+02 3.236659457250217642e+00 4.663826930169422819e-02
2.056946035361555403e-01 1.967244340506906610e+02 3.383114490471141433e+00 4.826069403665191743e-02
2.088684777411983218e-01 1.998132627628164926e+02 3.534752887184998027e+00 4.992379151718123742e-02
2.120423519462411310e-01 2.029044359538447964e+02 3.691711459016961072e+00 5.162837191189109665e-02
2.152162261512839403e-01 2.059979992065324836e+02 3.854130124451955020e+00 5.337527560497688783e-02
2.183901003563267218e-01 2.090939988462046699e+02 4.022152027866614077e+00 5.516537348909343608e-02
2.215639745613695033e-01 2.121924819561310755e+02 4.195923660677623346e+00 5.699956723409228820e-02
2.247378487664123126e-01 2.152934963937714485e+02 4.375594984589179504e+00 5.887878953278428279e-02
2.279117229714551218e-01 2.183970908078586888e+02 4.561319556927400320e+00 6.080400432475888128e-02
2.310855971764979033e-01 2.215033146562884099e+02 4.753254658054275161e+00 6.277620699916718061e-02
2.342594713815407126e-01 2.246122182247922012e+02 4.951561420858173079e+00 6.479642457725182103e-02
2.374333455865835218e-01 2.277238526463649748e+02 5.156404962322050700e+00 6.686571587528904181e-02
2.406072197916263034e-01 2.308382699214253648e+02 5.367954517174391427e+00 6.898517164848774752e-02
2.437810939966690849e-01 2.339555229386907627e+02 5.586383573631392707e+00 7.115591471627553954e-02
2.469549682017118941e-01 2.370756654967448753e+02 5.811870011242175948e+00 7.337910006928172191e-02
2.501288424067547034e-01 2.401987523262797311e+02 6.044596240851764613e+00 7.565591495821276380e-02
2.533027166117974849e-01 2.433248391130000243e+02 6.284749346699217476e+00 7.798757896469628303e-02
2.564765908168402664e-01 2.464539825211720370e+02 6.532521230670657708e+00 8.037534405404903048e-02
2.596504650218830479e-01 2.495862402178053401e+02 6.788108758728951031e+00 8.282049460980568656e-02
2.628243392269258849e-01 2.527216708974537198e+02 7.051713909543567027e+00 8.532434744971947871e-02
2.659982134319687219e-01 2.558603343076274257e+02 7.323543925345478378e+00 8.788825182281928550e-02
2.691720876370115034e-01 2.590022912748052590e+02 7.603811465033084360e+00 9.051358938697774692e-02
2.723459618420542849e-01 2.621476037310360425e+02 7.892734759555788848e+00 9.320177416632352552e-02
2.755198360470970664e-01 2.652963347411271116e+02 8.190537769602171281e+00 9.595425248767079640e-02
3.515296353114420458e-01 3.423697658646357809e+02 2.231683144358024862e+01 2.664767794180491478e-01
4.275394345757870251e-01 4.238754694913763501e+02 5.128114388889646591e+01 4.369993063484275408e-01
5.035492338401319490e-01 5.118726245545626057e+02 9.768867191313648846e+01 6.075218332788057118e-01
5.795590331044768728e-01 6.082470549559233177e+02 1.650947864665340319e+02 7.780443602091839939e-01
6.555688323688219077e-01 7.147867665215329680e+02 2.460463274839959240e+02 7.449509788515707998e-01
7.315786316331668315e-01 8.306609138628309665e+02 3.176432205268633311e+02 5.046109691697071575e-01
8.075884308975118664e-01 9.530957232753938797e+02 3.810291938963208622e+02 5.301417719160743669e-01
8.835982301618567902e-01 1.081903156945774981e+03 4.567028203118432543e+02 6.405388142611552205e-01
9.596080294262017141e-01 1.217954497431263917e+03 5.493283390107259265e+02 7.177348038312900691e-01
1.035617828690546638e+00 1.361849279996938549e+03 6.483996720569765557e+02 6.619778928731572254e-01
1.111627627954891562e+00 1.512899828758434523e+03 7.440111983636329569e+02 6.062209819150242707e-01
1.187637427219236486e+00 1.670335375942272321e+03 8.349177171493258811e+02 5.504640709568914270e-01
1.263647226483581631e+00 1.833408797121443513e+03 9.200150376711438867e+02 4.947071599987583612e-01
1.339657025747926777e+00 2.001400743081530436e+03 9.983367537776603058e+02 4.389502490406252955e-01
1.415666825012271701e+00 2.173622596552644154e+03 1.069049351596501310e+03 3.831933380824923963e-01
1.491676624276616625e+00 2.349418494675911461e+03 1.131446137403551802e+03 3.274364271243594970e-01
1.567686423540961549e+00 2.528274296587416757e+03 1.191157426276270144e+03 3.401666134116007600e-01
1.643696222805306473e+00 2.710138428471381303e+03 1.256414549203522483e+03 3.770962392145281172e-01
1.719706022069651397e+00 2.895199290209618994e+03 1.329655899081747293e+03 4.140258650174554744e-01
1.795715821333996320e+00 3.083675620317891116e+03 1.411212317386078212e+03 4.509554908203827761e-01
1.871725620598341244e+00 3.275782091157267132e+03 1.501436991070437443e+03 4.878851166233101333e-01
1.947735419862686168e+00 3.471730715283909831e+03 1.600705562651256059e+03 5.248147424262374905e-01
2.023745219127031092e+00 3.671732038966072651e+03 1.709416384809605688e+03 5.617443682291648477e-01
2.099755018391376016e+00 3.875986057303969119e+03 1.826651349230354299e+03 5.858375593569878914e-01
