# density  energy_density  pressure   sound_speed_squared  [All in nuclear units]
2.720000000000000022e-14 2.529924618736292620e-11 1.061056609100270887e-19 3.766610435412189122e-08
1.269999999999999890e-13 1.181251617980081254e-10 4.870113551826584858e-18 6.497781477172163475e-08
6.929999999999999754e-13 6.445728594625782745e-10 1.018299070687946017e-16 3.033770597342807186e-07
6.295000000000000137e-12 5.855111460395753757e-09 5.487150723824490656e-15 1.763710043904196507e-06
1.581000000000000150e-11 1.470523320212576141e-08 2.904239460150760759e-14 3.559434472327477622e-06
3.971999999999999958e-11 3.694456170323160790e-08 1.439340266754906811e-13 6.772854871245677111e-06
9.975999999999999982e-11 9.278976412613005154e-08 6.812143616221268841e-13 1.246890511177539320e-05
2.505999999999999928e-10 2.330928829758143313e-07 3.107749196951638608e-12 2.212095130576091967e-05
6.294000000000000186e-10 5.854398883216247602e-07 1.363250409771533549e-11 3.761981047239428883e-05
1.581000000000000021e-09 1.470619631082054101e-06 5.726014178088476303e-11 6.095350986710739404e-05
3.971999999999999932e-09 3.694861084648016046e-06 2.210019573374265380e-10 8.628023653304385055e-05
5.000000000000000105e-09 4.651201787816927976e-06 3.071485916280120014e-10 9.387863480799757518e-05
9.975999999999999465e-09 9.280587964640925786e-06 8.385361004129998845e-10 1.356922228656245837e-04
1.989999999999999952e-08 1.851419242998081003e-05 2.287763168863418088e-09 1.782101978513718314e-04
3.972999999999999908e-08 3.696699295748789187e-05 6.061583099087538954e-09 2.308134738384234820e-04
7.925999999999999637e-08 7.375765469301719828e-05 1.575347858094044765e-08 2.960532096713864875e-04
1.580999999999999930e-07 1.471491184379128891e-04 3.910429618672550719e-08 3.402859755131850544e-04
1.991000000000000027e-07 1.853209783927820692e-04 5.252045687899177454e-08 3.626488188833278743e-04
3.155999999999999938e-07 2.938002528823880299e-04 9.730770378831954314e-08 4.630767356912104081e-04
5.000999999999999849e-07 4.656344063839075714e-04 1.837494945860225819e-07 5.430301232045120323e-04
6.295999999999999732e-07 5.862651417037388971e-04 2.503103884558263872e-07 5.605192962670089638e-04
9.666999999999999941e-07 9.003386739730535665e-04 4.324450868778576936e-07 5.993081670211623108e-04
1.531999999999999901e-06 1.427170885631398036e-03 7.780217275717420968e-07 7.125938556504039095e-04
2.506999999999999883e-06 2.336134972129507662e-03 1.471005394641589826e-06 8.121876172121876309e-04
3.974000000000000407e-06 3.704315759716615697e-03 2.695705763844323844e-06 9.780674166779417152e-04
4.830000000000000343e-06 4.502887798316278223e-03 3.503988717694660908e-06 1.046253037768318664e-03
6.080999999999999885e-06 5.670217999231269741e-03 4.731126407333307547e-06 1.056224360839501646e-03
7.930000000000000308e-06 7.396012414119570652e-03 6.599662989063778187e-06 1.109203753630785610e-03
9.982000000000000313e-06 9.311815711689977113e-03 8.879881089227186733e-06 1.271216815433141075e-03
1.256999999999999993e-05 1.172874412604260098e-02 1.207676739913533738e-05 1.374195438212825332e-03
1.521999999999999997e-05 1.420427250933824909e-02 1.547541302213394990e-05 1.371610497379100249e-03
1.991000000000000080e-05 1.858690797761085312e-02 2.160710455847765458e-05 1.426578142835871997e-03
2.506999999999999883e-05 2.341050104039446925e-02 2.908031724375689851e-05 1.672007475975408053e-03
2.790999999999999875e-05 2.606604784714952258e-02 3.357009132255487721e-05 1.709425557744154774e-03
3.806999999999999973e-05 3.556967988784798945e-02 4.986781576435106434e-05 1.720407281314112165e-03
5.063000000000000145e-05 4.732434580343149871e-02 7.073400252905581275e-05 1.829889149838781265e-03
6.592000000000000583e-05 6.164112392498975052e-02 9.765037643900635188e-05 1.930242980462695823e-03
8.433000000000000066e-05 7.888776783401378612e-02 1.317235490470395893e-04 2.021055815200022837e-03
1.062000000000000064e-04 9.938561165478684845e-02 1.740088341640037047e-04 2.104789529260958983e-03
1.321000000000000126e-04 1.236720406455826121e-01 2.260189757651373944e-04 2.178291718403657477e-03
1.623999999999999901e-04 1.520974545104751274e-01 2.888169908545388338e-04 2.240170365918073281e-03
1.689999999999999879e-04 1.582907717069566844e-01 3.027354772999506964e-04 2.254509350360745651e-03
1.758999999999999930e-04 1.647661861691531171e-01 3.173785841705756782e-04 2.268169273277113179e-03
1.830000000000000029e-04 1.714298948183871907e-01 3.325196584577469103e-04 2.276170334580628063e-03
1.901999999999999882e-04 1.781880600978280049e-01 3.479577791899843742e-04 2.292561569242367037e-03
1.977000000000000079e-04 1.852284385240466902e-01 3.641242634600037713e-04 2.299943765467868384e-03
2.054000000000000053e-04 1.924572004474696396e-01 3.808304060475003897e-04 2.322187632288155723e-03
2.079000000000000119e-04 1.948043378760714872e-01 3.864137987380476553e-04 2.435429768083530178e-03
2.081999999999999921e-04 1.950859988578999005e-01 3.870314100985603909e-04 1.950065624557156818e-03
2.090999999999999868e-04 1.959309855029948977e-01 3.881261957135444685e-04 6.411875526909013856e-04
2.159999999999999919e-04 2.024093317906446865e-01 3.940874488768042125e-04 1.199166870571831411e-03
2.231000000000000019e-04 2.090756740932291913e-01 4.013938420547467825e-04 9.928616047829054436e-04
2.311000000000000066e-04 2.165873044433437034e-01 4.085241694843774404e-04 9.056166966301716637e-04
2.401000000000000085e-04 2.250381721984245909e-01 4.159700687886608468e-04 8.565463878902855599e-04
2.500000000000000052e-04 2.343344406330727658e-01 4.237602369176299592e-04 8.194318812157330018e-04
2.642999999999999733e-04 2.477629128650125634e-01 4.345596643180389446e-04 7.890063723638815647e-04
3.052999999999999941e-04 2.862671839140227270e-01 4.644058706720978241e-04 7.612775562167708662e-04
3.533000000000000224e-04 3.313503829113090826e-01 4.987577676308450197e-04 7.626578558207241024e-04
4.075999999999999871e-04 3.823564017794535141e-01 5.381334366106255759e-04 7.813048116943254948e-04
4.679999999999999915e-04 4.390986251953180042e-01 5.832692638200615834e-04 8.096035963157804938e-04
5.341000000000000261e-04 5.012024644415256081e-01 6.346556894078133086e-04 8.452514814113673558e-04
6.059000000000000366e-04 5.686690698184251325e-01 6.930641302632923034e-04 8.862253587289389486e-04
7.661000000000000275e-04 7.192254882508629654e-01 8.328184776562496576e-04 9.702780530519144065e-04
1.262000000000000101e-03 1.185459127778160093e+00 1.338484980802662205e-03 1.198863597978450275e-03
1.894999999999999983e-03 1.780909071169781921e+00 2.123481960401060308e-03 1.437771491635827115e-03
2.673000000000000029e-03 2.513147344746868850e+00 3.261860252001994032e-03 1.671524566936786766e-03
3.605999999999999830e-03 3.391736073717691369e+00 4.828136641022434151e-03 1.893900408978071038e-03
4.709999999999999777e-03 4.431905410739045870e+00 6.903512974832482635e-03 2.096551352830673849e-03
7.496000000000000059e-03 7.058993649504918366e+00 1.289742191321638018e-02 2.466596387205546859e-03
1.119999999999999989e-02 1.055540362104863661e+01 2.212077014004794340e-02 2.809304433764861584e-03
1.600000000000000033e-02 1.509117352747679952e+01 3.559566804390756900e-02 3.132325055719984222e-03
2.206999999999999934e-02 2.083310616724802244e+01 5.457322122755020599e-02 3.477840948757840792e-03
2.947999999999999926e-02 2.785007348564149154e+01 8.049103664263126956e-02 3.909302116317729670e-03
4.268000000000000266e-02 4.036707211535221518e+01 1.353887601042819133e-01 4.862066536253286525e-03
6.219999999999999835e-02 5.891246509830522626e+01 2.419691225623893105e-01 6.630786177272363080e-03
7.316999999999999893e-02 6.935151695866235855e+01 3.161896974764099033e-01 7.588671314871411888e-03
7.595999999999999974e-02 7.200836722020332559e+01 3.371250777904805096e-01 8.170805199905812125e-03
7.685877551020407761e-02 7.286441679626311441e+01 3.442054695127571562e-01 8.371199815914449893e-03
7.775755102040816935e-02 7.372055017550903244e+01 3.514582987715861306e-01 8.572014541952858654e-03
7.865632653061224722e-02 7.457676838466051095e+01 3.588839435301752756e-01 8.773192693041135734e-03
7.955510204081632508e-02 7.543307243101780557e+01 3.664827337585950806e-01 8.974677584199399275e-03
8.045387755102040295e-02 7.628946330257758746e+01 3.742549514018834178e-01 9.176412530447755275e-03
8.135265306122449469e-02 7.714594196814330473e+01 3.822008303475911695e-01 9.378340846806316675e-03
8.225142857142857256e-02 7.800250937743012969e+01 3.903205563927861221e-01 9.580405848295186003e-03
8.315020408163265042e-02 7.885916646116500317e+01 3.986142672105355556e-01 9.782550849934483136e-03
8.404897959183672829e-02 7.971591413118214575e+01 4.070820523158831250e-01 9.984719166744307137e-03
8.494775510204082003e-02 8.057275328051402141e+01 4.157239530313409093e-01 1.018685411374477615e-02
8.584653061224489790e-02 8.142968478347779637e+01 4.245399624519130000e-01 1.038889900595598922e-02
8.674530612244897576e-02 8.228670949575830207e+01 4.335300254096716710e-01 1.059079715839806451e-02
8.764408163265305363e-02 8.314382825448691960e+01 4.426940384379014493e-01 1.079249188609110802e-02
8.854285714285714537e-02 8.400104187831676938e+01 4.520318497348319031e-01 1.099392650405523961e-02
8.944163265306122323e-02 8.485835116749477436e+01 4.615432591269756912e-01 1.119504432731055141e-02
9.034040816326530110e-02 8.571575690393005686e+01 4.712280180320930212e-01 1.139578867087716330e-02
9.123918367346939284e-02 8.657325985125973489e+01 4.810858294217973952e-01 1.159610284977518127e-02
9.213795918367347071e-02 8.743086075491122244e+01 4.911163477838232927e-01 1.179593017902471480e-02
9.303673469387754857e-02 8.828856034216222781e+01 5.013191790839747197e-01 1.199521397364588030e-02
9.393551020408162644e-02 8.914635932219763959e+01 5.116938807277708889e-01 1.219389754865877681e-02
9.483428571428570431e-02 9.000425838616413898e+01 5.222399615218090707e-01 1.239192421908351729e-02
9.573306122448979605e-02 9.086225820722241053e+01 5.329568816348632110e-01 1.258923729994021988e-02
9.663183673469387391e-02 9.172035944059656742e+01 5.438440525587349139e-01 1.278578010624898190e-02
9.753061224489795178e-02 9.257856272362224104e+01 5.549008370688781611e-01 1.298149595302991975e-02
9.842938775510204352e-02 9.343686867579135935e+01 5.661265491848135323e-01 1.317632815530314291e-02
9.932816326530612139e-02 9.429527789879618638e+01 5.775204541303510242e-01 1.337022002808875391e-02
1.002269387755101993e-01 9.515379097657037732e+01 5.890817682936423383e-01 1.356311488640687089e-02
1.011257142857142910e-01 9.601240847532878320e+01 6.008096591870771830e-01 1.375495604527760159e-02
1.020244897959183689e-01 9.687113094360536536e+01 6.127032454070445722e-01 1.394568681972105026e-02
1.029232653061224467e-01 9.772995891228927690e+01 6.247615965935784388e-01 1.413525052475732985e-02
1.038220408163265246e-01 9.858889289465933814e+01 6.369837333899033283e-01 1.432359047540655156e-02
1.047208163265306025e-01 9.944793338641734692e+01 6.493686274019007110e-01 1.451064998668882139e-02
1.056195918367346942e-01 1.003070808657192998e+02 6.619152011575143435e-01 1.469637237362425575e-02
1.065183673469387721e-01 1.011663357932057039e+02 6.746223280661118871e-01 1.488070095123295716e-02
1.074171428571428499e-01 1.020256986120302969e+02 6.874888323778239885e-01 1.506357903453503511e-02
1.083159183673469417e-01 1.028851697478873746e+02 7.005134891428764776e-01 1.524494993855060251e-02
1.092146938775510195e-01 1.037447496090380525e+02 7.136950241709353326e-01 1.542475697829976539e-02
1.101134693877550974e-01 1.046044385863354620e+02 7.270321139904849517e-01 1.560294346880263666e-02
1.110122448979591891e-01 1.054642370532484534e+02 7.405233858082554965e-01 1.577945272507932581e-02
1.119110204081632531e-01 1.063241453658841067e+02 7.541674174687181820e-01 1.595422806214993883e-02
1.128097959183673449e-01 1.071841638630100135e+02 7.679627374136722695e-01 1.612721279503459559e-02
1.137085714285714227e-01 1.080442928660743007e+02 7.819078246419322031e-01 1.629835023875338823e-02
1.146073469387755006e-01 1.089045326792259800e+02 7.960011086691459736e-01 1.646758370832643315e-02
1.155061224489795924e-01 1.097648835893331380e+02 8.102409694877532598e-01 1.663485651877385368e-02
1.164048979591836702e-01 1.106253458660012541e+02 8.246257375271069945e-01 1.680011198511574197e-02
1.173036734693877481e-01 1.114859197615901962e+02 8.391536936137777847e-01 1.696329342237221094e-02
1.182024489795918398e-01 1.123466055112300381e+02 8.538230689320562838e-01 1.712434414556338047e-02
1.191012244897959177e-01 1.132074033328369183e+02 8.686320449846748337e-01 1.728320746970934615e-02
1.199999999999999956e-01 1.140683134271274781e+02 8.835787535537683590e-01 1.743982670983022440e-02
1.215466126234068384e-01 1.155500308855753957e+02 9.096177790336512636e-01 1.770723712324887705e-02
1.230932252468136950e-01 1.170320822727719587e+02 9.360654388002226378e-01 1.798335064637036212e-02
1.246398378702205378e-01 1.185144686102618579e+02 9.629349844743972930e-01 1.826836994881589349e-02
1.261864504936273945e-01 1.199971910606074772e+02 9.902399794294602930e-01 1.856249627680366110e-02
1.277330631170342234e-01 1.214802509260144916e+02 1.017994297152495786e+00 1.886592945771010596e-02
1.292796757404410801e-01 1.229636496470046865e+02 1.046212119623345815e+00 1.917886790336424327e-02
1.308262883638479368e-01 1.244473888011324760e+02 1.074907935709650708e+00 1.950150861215434878e-02
1.323729009872547657e-01 1.259314701017430025e+02 1.104096539576650660e+00 1.983404717002366230e-02
1.339195136106616224e-01 1.274158953967709067e+02 1.133793029110506501e+00 2.017667775042474715e-02
1.354661262340684791e-01 1.289006666675748534e+02 1.164012804353988795e+00 2.052959311329768943e-02
1.370127388574753080e-01 1.303857860278092176e+02 1.194771565953477888e+00 2.089298460313487177e-02
1.385593514808821647e-01 1.318712557223277884e+02 1.226085313616285921e+00 2.126704214618864441e-02
1.401059641042890214e-01 1.333570781261196885e+02 1.257970344577377331e+00 2.165195424687696435e-02
1.416525767276958503e-01 1.348432557432765009e+02 1.290443252074652492e+00 2.204790798343758684e-02
1.431991893511027070e-01 1.363297912059857140e+02 1.323520923832002483e+00 2.245508900287917706e-02
1.447458019745095636e-01 1.378166872735536401e+02 1.357220540549403109e+00 2.287368151527426063e-02
1.462924145979163926e-01 1.393039468314521230e+02 1.391559574399388266e+00 2.330386828743788441e-02
1.478390272213232493e-01 1.407915728903911088e+02 1.426555787529276698e+00 2.374583063603213570e-02
1.493856398447301059e-01 1.422795685854131023e+02 1.462227230568577951e+00 2.419974842013555491e-02
1.509322524681369626e-01 1.437679371750109567e+02 1.498592241141062820e+00 2.466580003331456453e-02
1.524788650915437915e-01 1.452566820402656731e+02 1.535669442381008443e+00 2.514416239523200799e-02
1.540254777149506482e-01 1.467458066840047195e+02 1.573477741453185308e+00 2.563501094282669493e-02
1.555720903383575049e-01 1.482353147299785121e+02 1.612036328076176250e+00 2.613851962109624283e-02
1.571187029617643338e-01 1.497252099220564503e+02 1.651364673048675957e+00 2.665486087351441255e-02
1.586653155851711905e-01 1.512154961234381574e+02 1.691482526778436801e+00 2.718420563211268806e-02
1.602119282085780472e-01 1.527061773158830533e+02 1.732409917813561462e+00 2.772672330725517442e-02
1.617585408319848761e-01 1.541972575989542804e+02 1.774167151375892981e+00 2.828258177713453489e-02
1.633051534553917328e-01 1.556887411892776925e+02 1.816774807896265331e+00 2.885194737701615372e-02
1.648517660787985895e-01 1.571806324198159928e+02 1.860253741551407769e+00 2.943498488825660800e-02
1.663983787022054184e-01 1.586729357391544966e+02 1.904625078802343552e+00 3.003185752712197662e-02
1.679449913256122751e-01 1.601656557108023549e+02 1.949910216934132468e+00 3.064272693343099083e-02
1.694916039490191317e-01 1.616587970125039533e+02 1.996130822596834387e+00 3.126775315904702784e-02
1.710382165724259607e-01 1.631523644355626175e+02 2.043308830347615235e+00 3.190709465624297358e-02
1.725848291958328173e-01 1.646463628841770799e+02 2.091466441193923220e+00 3.256090826596187010e-02
1.741314418192396740e-01 1.661407973747866436e+02 2.140626121137688909e+00 3.322934920599641268e-02
1.756780544426465029e-01 1.676356730354275442e+02 2.190810599720545149e+00 3.391257105910970571e-02
1.772246670660533596e-01 1.691309951050998279e+02 2.242042868570068403e+00 3.461072576111923899e-02
1.787712796894602163e-01 1.706267689331421877e+02 2.294346179947063469e+00 3.532396358896600086e-02
1.803178923128670452e-01 1.721229999786177984e+02 2.347744045293961968e+00 3.605243314879025968e-02
1.818645049362739019e-01 1.736196938097065186e+02 2.402260233784403010e+00 3.679628136403520489e-02
1.834111175596807586e-01 1.751168561031072386e+02 2.457918770874085723e+00 3.755565346359956980e-02
1.849577301830875875e-01 1.766144926434477043e+02 2.514743936853032658e+00 3.833069297006044124e-02
1.865043428064944442e-01 1.781126093227014167e+02 2.572760265399397284e+00 3.912154168798662873e-02
1.880509554299013009e-01 1.796112121396122063e+02 2.631992542134975466e+00 3.992833969236352087e-02
1.895975680533081298e-01 1.811103071991265949e+02 2.692465803182620743e+00 4.075122531714993335e-02
1.911441806767149865e-01 1.826099007118317559e+02 2.754205333725769034e+00 4.159033514398762649e-02
1.926907933001218431e-01 1.841099989934003531e+02 2.817236666570289927e+00 4.244580399108346946e-02
1.942374059235286721e-01 1.856106084640425422e+02 2.881585580708938554e+00 4.331776490228547022e-02
1.957840185469355287e-01 1.871117356479628029e+02 2.947278099888675396e+00 4.420634913637221802e-02
2.734210793929164329e-01 2.635720404273674262e+02 9.442033018152601542e+00 1.245824422927618025e-01
3.510581402388973649e-01 3.427236037944458076e+02 2.254928589742587519e+01 2.049585354491514355e-01
4.286952010848782413e-01 4.255137309215320442e+02 4.293091445316498778e+01 2.853346286055409853e-01
5.063322619308591177e-01 5.126747795822304852e+02 7.141056287234206934e+01 3.657107217619305906e-01
5.839693227768399941e-01 6.054016877499643670e+02 1.327964373784573127e+02 9.172385358973933478e-01
6.616063836228209816e-01 7.094683677943029352e+02 2.229838566285328909e+02 8.257719645713864631e-01
7.392434444688018580e-01 8.240963086967999516e+02 3.119675090113387341e+02 7.343053932453795785e-01
8.168805053147827344e-01 9.478862914692977029e+02 3.968523152822202178e+02 6.428388219193728048e-01
8.945175661607636108e-01 1.078948516919749864e+03 4.564249801495720362e+02 2.775602368103592399e-01
9.721546270067444873e-01 1.214268039080342533e+03 5.138059052969808818e+02 5.635623678550383264e-01
1.049791687852725586e+00 1.355597112187081848e+03 6.145858496325311080e+02 8.495644988997183011e-01
1.127428748698706462e+00 1.505890531468496192e+03 7.469158367115632018e+02 9.080907598438267003e-01
1.205065809544687339e+00 1.665824718185669553e+03 8.834666848962418726e+02 8.050859092129405425e-01
1.282702870390668215e+00 1.834241914606241835e+03 1.010012409153543786e+03 7.020810585820543848e-01
1.360339931236649091e+00 2.009939891247203832e+03 1.124020268874156955e+03 5.990762079511682270e-01
1.437976992082629968e+00 2.191720342705481926e+03 1.223328735235310205e+03 4.960713573202820692e-01
1.515614052928610844e+00 2.378483821081789756e+03 1.311057357138548696e+03 4.444089060578768069e-01
1.593251113774591721e+00 2.569619875278208838e+03 1.396307509071306413e+03 4.476416221295682063e-01
1.670888174620572597e+00 2.764971861847165655e+03 1.484069902410281884e+03 4.508743382012596057e-01
1.748525235466553474e+00 2.964460357840041070e+03 1.574335820163966901e+03 4.541070542729510051e-01
1.826162296312534572e+00 3.168012663809599871e+03 1.667098845008400531e+03 4.573397703446424045e-01
1.903799357158515448e+00 3.375562037441518441e+03 1.762354593366347899e+03 4.605724864163337484e-01
1.981436418004496325e+00 3.587047042362317370e+03 1.860100490586320348e+03 4.638052024880251478e-01
2.059073478850477201e+00 3.802410990983351439e+03 1.960335579551911906e+03 4.670379185597165472e-01
