# density  energy_density  pressure   sound_speed_squared  [All in nuclear units]
2.720000000000000022e-14 2.529924618736292620e-11 1.061056609100270887e-19 3.766610435412189122e-08
1.269999999999999890e-13 1.181251617980081254e-10 4.870113551826584858e-18 6.497781477172163475e-08
6.929999999999999754e-13 6.445728594625782745e-10 1.018299070687946017e-16 3.033770597342807186e-07
6.295000000000000137e-12 5.855111460395753757e-09 5.487150723824490656e-15 1.763710043904196507e-06
1.581000000000000150e-11 1.470523320212576141e-08 2.904239460150760759e-14 3.559434472327477622e-06
3.971999999999999958e-11 3.694456170323160790e-08 1.439340266754906811e-13 6.772854871245677111e-06
9.975999999999999982e-11 9.278976412613005154e-08 6.812143616221268841e-13 1.246890511177539320e-05
2.505999999999999928e-10 2.330928829758143313e-07 3.107749196951638608e-12 2.212095130576091967e-05
6.294000000000000186e-10 5.854398883216247602e-07 1.363250409771533549e-11 3.761981047239428883e-05
1.581000000000000021e-09 1.470619631082054101e-06 5.726014178088476303e-11 6.095350986710739404e-05
3.971999999999999932e-09 3.694861084648016046e-06 2.210019573374265380e-10 8.628023653304385055e-05
5.000000000000000105e-09 4.651201787816927976e-06 3.071485916280120014e-10 9.387863480799757518e-05
9.975999999999999465e-09 9.280587964640925786e-06 8.385361004129998845e-10 1.356922228656245837e-04
1.989999999999999952e-08 1.851419242998081003e-05 2.287763168863418088e-09 1.782101978513718314e-04
3.972999999999999908e-08 3.696699295748789187e-05 6.061583099087538954e-09 2.308134738384234820e-04
7.925999999999999637e-08 7.375765469301719828e-05 1.575347858094044765e-08 2.960532096713864875e-04
1.580999999999999930e-07 1.471491184379128891e-04 3.910429618672550719e-08 3.402859755131850544e-04
1.991000000000000027e-07 1.853209783927820692e-04 5.252045687899177454e-08 3.626488188833278743e-04
3.155999999999999938e-07 2.938002528823880299e-04 9.730770378831954314e-08 4.630767356912104081e-04
5.000999999999999849e-07 4.656344063839075714e-04 1.837494945860225819e-07 5.430301232045120323e-04
6.295999999999999732e-07 5.862651417037388971e-04 2.503103884558263872e-07 5.605192962670089638e-04
9.666999999999999941e-07 9.003386739730535665e-04 4.324450868778576936e-07 5.993081670211623108e-04
1.531999999999999901e-06 1.427170885631398036e-03 7.780217275717420968e-07 7.125938556504039095e-04
2.506999999999999883e-06 2.336134972129507662e-03 1.471005394641589826e-06 8.121876172121876309e-04
3.974000000000000407e-06 3.704315759716615697e-03 2.695705763844323844e-06 9.780674166779417152e-04
4.830000000000000343e-06 4.502887798316278223e-03 3.503988717694660908e-06 1.046253037768318664e-03
6.080999999999999885e-06 5.670217999231269741e-03 4.731126407333307547e-06 1.056224360839501646e-03
7.930000000000000308e-06 7.396012414119570652e-03 6.599662989063778187e-06 1.109203753630785610e-03
9.982000000000000313e-06 9.311815711689977113e-03 8.879881089227186733e-06 1.271216815433141075e-03
1.256999999999999993e-05 1.172874412604260098e-02 1.207676739913533738e-05 1.374195438212825332e-03
1.521999999999999997e-05 1.420427250933824909e-02 1.547541302213394990e-05 1.371610497379100249e-03
1.991000000000000080e-05 1.858690797761085312e-02 2.160710455847765458e-05 1.426578142835871997e-03
2.506999999999999883e-05 2.341050104039446925e-02 2.908031724375689851e-05 1.672007475975408053e-03
2.790999999999999875e-05 2.606604784714952258e-02 3.357009132255487721e-05 1.709425557744154774e-03
3.806999999999999973e-05 3.556967988784798945e-02 4.986781576435106434e-05 1.720407281314112165e-03
5.063000000000000145e-05 4.732434580343149871e-02 7.073400252905581275e-05 1.829889149838781265e-03
6.592000000000000583e-05 6.164112392498975052e-02 9.765037643900635188e-05 1.930242980462695823e-03
8.433000000000000066e-05 7.888776783401378612e-02 1.317235490470395893e-04 2.021055815200022837e-03
1.062000000000000064e-04 9.938561165478684845e-02 1.740088341640037047e-04 2.104789529260958983e-03
1.321000000000000126e-04 1.236720406455826121e-01 2.260189757651373944e-04 2.178291718403657477e-03
1.623999999999999901e-04 1.520974545104751274e-01 2.888169908545388338e-04 2.240170365918073281e-03
1.689999999999999879e-04 1.582907717069566844e-01 3.027354772999506964e-04 2.254509350360745651e-03
1.758999999999999930e-04 1.647661861691531171e-01 3.173785841705756782e-04 2.268169273277113179e-03
1.830000000000000029e-04 1.714298948183871907e-01 3.325196584577469103e-04 2.276170334580628063e-03
1.901999999999999882e-04 1.781880600978280049e-01 3.479577791899843742e-04 2.292561569242367037e-03
1.977000000000000079e-04 1.852284385240466902e-01 3.641242634600037713e-04 2.299943765467868384e-03
2.054000000000000053e-04 1.924572004474696396e-01 3.808304060475003897e-04 2.322187632288155723e-03
2.079000000000000119e-04 1.948043378760714872e-01 3.864137987380476553e-04 2.435429768083530178e-03
2.081999999999999921e-04 1.950859988578999005e-01 3.870314100985603909e-04 1.950065624557156818e-03
2.090999999999999868e-04 1.959309855029948977e-01 3.881261957135444685e-04 6.411875526909013856e-04
2.159999999999999919e-04 2.024093317906446865e-01 3.940874488768042125e-04 1.199166870571831411e-03
2.231000000000000019e-04 2.090756740932291913e-01 4.013938420547467825e-04 9.928616047829054436e-04
2.311000000000000066e-04 2.165873044433437034e-01 4.085241694843774404e-04 9.056166966301716637e-04
2.401000000000000085e-04 2.250381721984245909e-01 4.159700687886608468e-04 8.565463878902855599e-04
2.500000000000000052e-04 2.343344406330727658e-01 4.237602369176299592e-04 8.194318812157330018e-04
2.642999999999999733e-04 2.477629128650125634e-01 4.345596643180389446e-04 7.890063723638815647e-04
3.052999999999999941e-04 2.862671839140227270e-01 4.644058706720978241e-04 7.612775562167708662e-04
3.533000000000000224e-04 3.313503829113090826e-01 4.987577676308450197e-04 7.626578558207241024e-04
4.075999999999999871e-04 3.823564017794535141e-01 5.381334366106255759e-04 7.813048116943254948e-04
4.679999999999999915e-04 4.390986251953180042e-01 5.832692638200615834e-04 8.096035963157804938e-04
5.341000000000000261e-04 5.012024644415256081e-01 6.346556894078133086e-04 8.452514814113673558e-04
6.059000000000000366e-04 5.686690698184251325e-01 6.930641302632923034e-04 8.862253587289389486e-04
7.661000000000000275e-04 7.192254882508629654e-01 8.328184776562496576e-04 9.702780530519144065e-04
1.262000000000000101e-03 1.185459127778160093e+00 1.338484980802662205e-03 1.198863597978450275e-03
1.894999999999999983e-03 1.780909071169781921e+00 2.123481960401060308e-03 1.437771491635827115e-03
2.673000000000000029e-03 2.513147344746868850e+00 3.261860252001994032e-03 1.671524566936786766e-03
3.605999999999999830e-03 3.391736073717691369e+00 4.828136641022434151e-03 1.893900408978071038e-03
4.709999999999999777e-03 4.431905410739045870e+00 6.903512974832482635e-03 2.096551352830673849e-03
7.496000000000000059e-03 7.058993649504918366e+00 1.289742191321638018e-02 2.466596387205546859e-03
1.119999999999999989e-02 1.055540362104863661e+01 2.212077014004794340e-02 2.809304433764861584e-03
1.600000000000000033e-02 1.509117352747679952e+01 3.559566804390756900e-02 3.132325055719984222e-03
2.206999999999999934e-02 2.083310616724802244e+01 5.457322122755020599e-02 3.477840948757840792e-03
2.947999999999999926e-02 2.785007348564149154e+01 8.049103664263126956e-02 3.909302116317729670e-03
4.268000000000000266e-02 4.036707211535221518e+01 1.353887601042819133e-01 4.862066536253286525e-03
6.219999999999999835e-02 5.891246509830522626e+01 2.419691225623893105e-01 6.630786177272363080e-03
7.316999999999999893e-02 6.935151695866235855e+01 3.161896974764099033e-01 7.588671314871411888e-03
7.595999999999999974e-02 7.200836722020332559e+01 3.371250777904805096e-01 8.170805199905812125e-03
7.685877551020407761e-02 7.286441678272272782e+01 3.442031523067916043e-01 8.365786626014639488e-03
7.775755102040816935e-02 7.372055008592090530e+01 3.514475712349325320e-01 8.557782436521686742e-03
7.865632653061224722e-02 7.457676807072236613e+01 3.588559187446629939e-01 8.747026114092507770e-03
7.955510204081632508e-02 7.543307163007445126e+01 3.664259783233230205e-01 8.933751141392684211e-03
8.045387755102040295e-02 7.628946161282584626e+01 3.741557328398375515e-01 9.118191001087783826e-03
8.135265306122449469e-02 7.714593882743267272e+01 3.820433646139302364e-01 9.300579175843370905e-03
8.225142857142857256e-02 7.800250404550126859e+01 3.900872554901096412e-01 9.481149148325008005e-03
8.315020408163265042e-02 7.885915800517730645e+01 3.982859869160396693e-01 9.660134401198271561e-03
8.404897959183672829e-02 7.971590141438909427e+01 4.066383400249413138e-01 9.837768417128724130e-03
8.494775510204082003e-02 8.057273495395283192e+01 4.151432957217154884e-01 1.001428467878194388e-02
8.584653061224489790e-02 8.142965928054748304e+01 4.238000347725093264e-01 1.018991666882348296e-02
8.674530612244897576e-02 8.228667502956643887e+01 4.326079378974835854e-01 1.036489786991892127e-02
8.764408163265305363e-02 8.314378281785110403e+01 4.415665858665661636e-01 1.053946176473382484e-02
8.854285714285714537e-02 8.400098324631412083e+01 4.506757595980093734e-01 1.071384183593375970e-02
8.944163265306122323e-02 8.485827690245677957e+01 4.599354402595918767e-01 1.088827156618429708e-02
9.034040816326530110e-02 8.571566436278585854e+01 4.693458093723355540e-01 1.106298443815099779e-02
9.123918367346939284e-02 8.657314619513641674e+01 4.789072489166256719e-01 1.123821393449943827e-02
9.213795918367347071e-02 8.743072296090281270e+01 4.886203414406491974e-01 1.141419353789518455e-02
9.303673469387754857e-02 8.828839521718442995e+01 4.984858701710862539e-01 1.159115673100380092e-02
9.393551020408162644e-02 8.914616351884983203e+01 5.085048191260055361e-01 1.176933699649085688e-02
9.483428571428570431e-02 9.000402842052223207e+01 5.186783732299375949e-01 1.194896781702192018e-02
9.573306122448979605e-02 9.086199047849139276e+01 5.290079184311137217e-01 1.213028267526256726e-02
9.663183673469387391e-02 9.172005025255442945e+01 5.394950418208745990e-01 1.231351505387835374e-02
9.753061224489795178e-02 9.257820830778980792e+01 5.501415317552711404e-01 1.249889843553485431e-02
9.842938775510204352e-02 9.343646521626628498e+01 5.609493779788887746e-01 1.268666630289763848e-02
9.932816326530612139e-02 9.429482155869128235e+01 5.719207717509441347e-01 1.287705213863226880e-02
1.002269387755101993e-01 9.515327792600048440e+01 5.830581059737164340e-01 1.307028942540431476e-02
1.011257142857142910e-01 9.601183492089108995e+01 5.943639753233825873e-01 1.326661164587935281e-02
1.020244897959183689e-01 9.687049315930288174e+01 6.058411763833414510e-01 1.346625228272294028e-02
1.029232653061224467e-01 9.772925327184697153e+01 6.174927077801236619e-01 1.366944481860064842e-02
1.038220408163265246e-01 9.858811590518683943e+01 6.293217703219873282e-01 1.387642273617804324e-02
1.047208163265306025e-01 9.944708172337213625e+01 6.413317671403176989e-01 1.408741951812069945e-02
1.056195918367346942e-01 1.003061514091281907e+02 6.535263038339519381e-01 1.430266864709418134e-02
1.065183673469387721e-01 1.011653256651030119e+02 6.659091886165608987e-01 1.452240360576406014e-02
1.074171428571428499e-01 1.020246052150730804e+02 6.784844324672304472e-01 1.474685787679589494e-02
1.083159183673469417e-01 1.028839908051101730e+02 6.912562492843860040e-01 1.497626494285526563e-02
1.092146938775510195e-01 1.037434832047109126e+02 7.042290560432187263e-01 1.521085828660772785e-02
1.101134693877550974e-01 1.046030832078905490e+02 7.174074729567755382e-01 1.545087139071885975e-02
1.110122448979591891e-01 1.054627916342417393e+02 7.307963236408794305e-01 1.569653773785423256e-02
1.119110204081632531e-01 1.063226093299612103e+02 7.444006352830567774e-01 1.594809081067939324e-02
1.128097959183673449e-01 1.071825371688441351e+02 7.582256388156558558e-01 1.620576409185994077e-02
1.137085714285714227e-01 1.080425760532484531e+02 7.722767690933360907e-01 1.646979106406141688e-02
1.146073469387755006e-01 1.089027269150303283e+02 7.865596650751300878e-01 1.674040520994939801e-02
1.155061224489795924e-01 1.097629907164515686e+02 8.010801700112688550e-01 1.701784001218946060e-02
1.164048979591836702e-01 1.106233684510599460e+02 8.158443316349761609e-01 1.730232895344716373e-02
1.173036734693877481e-01 1.114838611445442922e+02 8.308584023594415280e-01 1.759410551638807343e-02
1.182024489795918398e-01 1.123444698555648671e+02 8.461288394801803614e-01 1.789340318367777308e-02
1.191012244897959177e-01 1.132051956765596969e+02 8.616623053830000378e-01 1.820045543798181134e-02
1.199999999999999956e-01 1.140660397345283741e+02 8.774656677577952202e-01 1.851549576196576466e-02
1.231219786430433893e-01 1.170572020704355509e+02 9.345611588736186803e-01 1.966038161193924341e-02
1.262439572860867831e-01 1.200498564090865443e+02 9.951665741006426869e-01 2.084213891900019502e-02
1.293659359291301769e-01 1.230440540742573177e+02 1.059397158972736896e+00 2.206095044726446436e-02
1.324879145721735707e-01 1.260398467052898326e+02 1.127369124952784407e+00 2.331703585417543509e-02
1.356098932152169367e-01 1.290372862589709086e+02 1.199199771909120971e+00 2.461065004045375273e-02
1.387318718582603305e-01 1.320364250140099216e+02 1.275007606144209271e+00 2.594208142990793789e-02
1.418538505013037243e-01 1.350373155777167256e+02 1.354912453803024608e+00 2.731165018866939243e-02
1.449758291443471181e-01 1.380400108945380282e+02 1.439035569513535062e+00 2.871970639263435668e-02
1.480978077873905119e-01 1.410445642561452928e+02 1.527499740134324213e+00 3.016662815122098454e-02
1.512197864304339057e-01 1.440510293128074579e+02 1.620429383505226806e+00 3.165281969496628461e-02
1.543417650734772995e-01 1.470594600858109402e+02 1.717950642116026660e+00 3.317870943398515404e-02
1.574637437165206932e-01 1.500699109807194986e+02 1.820191471626075641e+00 3.474474799388225371e-02
1.605857223595640870e-01 1.530824368012845014e+02 1.927281724184325196e+00 3.635140623534185295e-02
1.637077010026074531e-01 1.560970927638446994e+02 2.039353226514919903e+00 3.799917326331171685e-02
1.668296796456508468e-01 1.591139345120660096e+02 2.156539852748353692e+00 3.968855443144423539e-02
1.699516582886942406e-01 1.621330181318928680e+02 2.278977591992374485e+00 4.142006934725284140e-02
1.730736369317376344e-01 1.651544001665933195e+02 2.406804610650568055e+00 4.319424988328583737e-02
1.761956155747810282e-01 1.681781376317967727e+02 2.540161309509870069e+00 4.501163819950661921e-02
1.793175942178244220e-01 1.712042880304320249e+02 2.679190375631424814e+00 4.687278478200020831e-02
1.824395728608678158e-01 1.742329093674825629e+02 2.824036829092266387e+00 4.877824650309670051e-02
1.855615515039111818e-01 1.772640601644896208e+02 2.974848064638405010e+00 5.072858470801445280e-02
1.886835301469546033e-01 1.802977994737380811e+02 3.131773888323213129e+00 5.272436333317642027e-02
1.918055087899979694e-01 1.833341868920685158e+02 3.294966549218565355e+00 5.476614706144092987e-02
1.949274874330413909e-01 1.863732825742677051e+02 3.464580766300311421e+00 5.685449951961829562e-02
1.980494660760847569e-01 1.894151472459945751e+02 3.640773750624137328e+00 5.898998152380699467e-02
2.011714447191281507e-01 1.924598422162037537e+02 3.823705222923342806e+00 6.117314937828934041e-02
2.042934233621715445e-01 1.955074293890384354e+02 4.013537426776041528e+00 6.340455323396558540e-02
2.074154020052149383e-01 1.985579712751637089e+02 4.210435137506559400e+00 6.568473551258746657e-02
2.105373806482583321e-01 2.016115310025217298e+02 4.414565667003945038e+00 6.801422940336890322e-02
2.136593592913016981e-01 2.046681723264921402e+02 4.626098864660067811e+00 7.039355743890871042e-02
2.167813379343451197e-01 2.077279596394442365e+02 4.845207114650692759e+00 7.282323015775757358e-02
2.199033165773884857e-01 2.107909579796776711e+02 5.072065329805369949e+00 7.530374486139596035e-02
2.230252952204319072e-01 2.138572330397441590e+02 5.306850942336337695e+00 7.783558447386679235e-02
2.261472738634752733e-01 2.169268511741549048e+02 5.549743891722562772e+00 8.041921651281933037e-02
2.292692525065186671e-01 2.199998794064765661e+02 5.800926610073490863e+00 8.305509218128127868e-02
2.323912311495620608e-01 2.230763854358292235e+02 6.060584005327291024e+00 8.574364559006529551e-02
2.355132097926054546e-01 2.261564376427938896e+02 6.328903442671456325e+00 8.848529312135731961e-02
2.386351884356488484e-01 2.292401050947552221e+02 6.606074724608979487e+00 9.128043294470389313e-02
2.417571670786922144e-01 2.323274575506950157e+02 6.892290070131677382e+00 9.412944469732922870e-02
2.448791457217356360e-01 2.354185654654688733e+02 7.187744093503494192e+00 9.703268934146046243e-02
2.480011243647790298e-01 2.385134999935931148e+02 7.492633783201020137e+00 9.999050921212093712e-02
2.511231030078223680e-01 2.416123329925814005e+02 7.807158481606370160e+00 1.030032282696655421e-01
2.542450816508657896e-01 2.447151370258725080e+02 8.131519866098805949e+00 1.060711525721679538e-01
2.573670602939092111e-01 2.478219853653917824e+02 8.465921932246523340e+00 1.091945709836356498e-01
2.604890389369525772e-01 2.509329519938039255e+02 8.810570979859130958e+00 1.123737561349081732e-01
2.636110175799959432e-01 2.540481116065120943e+02 9.165675602724125071e+00 1.156089656549678379e-01
2.667329962230393647e-01 2.571675396134649532e+02 9.531446682917781743e+00 1.189004436912879381e-01
2.698549748660827863e-01 2.602913121408464008e+02 9.908097390652315539e+00 1.222484227387056616e-01
2.729769535091261523e-01 2.634195060327220403e+02 1.029584319069676646e+01 1.256531257971544857e-01
3.490386483354704916e-01 3.416951677477482008e+02 2.781953208078056861e+01 3.162312158699099873e-01
4.251003431618148865e-01 4.253900550475611908e+02 6.268113551395797600e+01 5.068093059426657110e-01
5.011620379881592813e-01 5.167999202486205377e+02 1.144712710573204788e+02 6.191646088355433619e-01
5.772237328145035651e-01 6.167218212546006271e+02 1.667164364258119349e+02 4.375373578113599393e-01
6.532854276408479599e-01 7.224669661269379048e+02 2.030897070850829209e+02 2.559101067871762947e-01
7.293471224671923547e-01 8.313251820013874749e+02 2.209542925588148421e+02 7.428285576299265003e-02
8.054088172935367496e-01 9.418201017839749056e+02 2.371363043172209757e+02 2.174643227374702392e-01
8.814705121198811444e-01 1.054606352918870698e+03 2.720148475720866941e+02 3.978633002428253462e-01
9.575322069462255392e-01 1.171251335356673053e+03 3.292495166805609301e+02 5.782622777481805088e-01
1.033593901772569934e+00 1.293295892730787727e+03 4.100321175649629595e+02 7.390731405520127861e-01
1.109655596598914107e+00 1.422040698086784460e+03 5.054481400009518097e+02 7.431964101313400795e-01
1.185717291425258502e+00 1.557516534103256845e+03 6.064123870714263376e+02 7.473196797106673728e-01
1.261778986251602896e+00 1.699647340714422853e+03 7.129232276034529150e+02 7.514429492899946661e-01
1.337840681077947291e+00 1.848366329408918773e+03 8.249851037016841246e+02 7.555662188693219594e-01
1.413902375904291686e+00 2.003614721076978640e+03 9.426077207060088767e+02 7.596894884486492527e-01
1.489964070730636081e+00 2.164594966388598550e+03 1.014062559628368945e+03 1.386816657714674550e-01
1.566025765556980476e+00 2.327939725704933608e+03 1.066633508716592587e+03 5.012204907280527477e-01
1.642087460383324871e+00 2.495032368016598411e+03 1.178024671653494352e+03 8.237157455849050125e-01
1.718149155209669265e+00 2.668405215425641472e+03 1.319838086956888901e+03 8.126675462997232646e-01
1.794210850036013660e+00 2.848129354272103683e+03 1.464863511327810102e+03 8.016193470145416278e-01
1.870272544862357833e+00 3.034066327338900919e+03 1.612850372243027550e+03 7.905711477293599909e-01
1.946334239688702228e+00 3.226078861295006845e+03 1.763553613325899732e+03 7.795229484441782430e-01
2.022395934515046623e+00 3.424030943737967391e+03 1.916733702075156543e+03 7.684747491589966062e-01
2.098457629341390795e+00 3.627787888669332460e+03 2.072156624439109692e+03 7.574265498738149693e-01
