# density  energy_density  pressure   sound_speed_squared  [All in nuclear units]
2.720000000000000022e-14 2.529924618736292620e-11 1.061056609100270887e-19 3.766610435412189122e-08
1.269999999999999890e-13 1.181251617980081254e-10 4.870113551826584858e-18 6.497781477172163475e-08
6.929999999999999754e-13 6.445728594625782745e-10 1.018299070687946017e-16 3.033770597342807186e-07
6.295000000000000137e-12 5.855111460395753757e-09 5.487150723824490656e-15 1.763710043904196507e-06
1.581000000000000150e-11 1.470523320212576141e-08 2.904239460150760759e-14 3.559434472327477622e-06
3.971999999999999958e-11 3.694456170323160790e-08 1.439340266754906811e-13 6.772854871245677111e-06
9.975999999999999982e-11 9.278976412613005154e-08 6.812143616221268841e-13 1.246890511177539320e-05
2.505999999999999928e-10 2.330928829758143313e-07 3.107749196951638608e-12 2.212095130576091967e-05
6.294000000000000186e-10 5.854398883216247602e-07 1.363250409771533549e-11 3.761981047239428883e-05
1.581000000000000021e-09 1.470619631082054101e-06 5.726014178088476303e-11 6.095350986710739404e-05
3.971999999999999932e-09 3.694861084648016046e-06 2.210019573374265380e-10 8.628023653304385055e-05
5.000000000000000105e-09 4.651201787816927976e-06 3.071485916280120014e-10 9.387863480799757518e-05
9.975999999999999465e-09 9.280587964640925786e-06 8.385361004129998845e-10 1.356922228656245837e-04
1.989999999999999952e-08 1.851419242998081003e-05 2.287763168863418088e-09 1.782101978513718314e-04
3.972999999999999908e-08 3.696699295748789187e-05 6.061583099087538954e-09 2.308134738384234820e-04
7.925999999999999637e-08 7.375765469301719828e-05 1.575347858094044765e-08 2.960532096713864875e-04
1.580999999999999930e-07 1.471491184379128891e-04 3.910429618672550719e-08 3.402859755131850544e-04
1.991000000000000027e-07 1.853209783927820692e-04 5.252045687899177454e-08 3.626488188833278743e-04
3.155999999999999938e-07 2.938002528823880299e-04 9.730770378831954314e-08 4.630767356912104081e-04
5.000999999999999849e-07 4.656344063839075714e-04 1.837494945860225819e-07 5.430301232045120323e-04
6.295999999999999732e-07 5.862651417037388971e-04 2.503103884558263872e-07 5.605192962670089638e-04
9.666999999999999941e-07 9.003386739730535665e-04 4.324450868778576936e-07 5.993081670211623108e-04
1.531999999999999901e-06 1.427170885631398036e-03 7.780217275717420968e-07 7.125938556504039095e-04
2.506999999999999883e-06 2.336134972129507662e-03 1.471005394641589826e-06 8.121876172121876309e-04
3.974000000000000407e-06 3.704315759716615697e-03 2.695705763844323844e-06 9.780674166779417152e-04
4.830000000000000343e-06 4.502887798316278223e-03 3.503988717694660908e-06 1.046253037768318664e-03
6.080999999999999885e-06 5.670217999231269741e-03 4.731126407333307547e-06 1.056224360839501646e-03
7.930000000000000308e-06 7.396012414119570652e-03 6.599662989063778187e-06 1.109203753630785610e-03
9.982000000000000313e-06 9.311815711689977113e-03 8.879881089227186733e-06 1.271216815433141075e-03
1.256999999999999993e-05 1.172874412604260098e-02 1.207676739913533738e-05 1.374195438212825332e-03
1.521999999999999997e-05 1.420427250933824909e-02 1.547541302213394990e-05 1.371610497379100249e-03
1.991000000000000080e-05 1.858690797761085312e-02 2.160710455847765458e-05 1.426578142835871997e-03
2.506999999999999883e-05 2.341050104039446925e-02 2.908031724375689851e-05 1.672007475975408053e-03
2.790999999999999875e-05 2.606604784714952258e-02 3.357009132255487721e-05 1.709425557744154774e-03
3.806999999999999973e-05 3.556967988784798945e-02 4.986781576435106434e-05 1.720407281314112165e-03
5.063000000000000145e-05 4.732434580343149871e-02 7.073400252905581275e-05 1.829889149838781265e-03
6.592000000000000583e-05 6.164112392498975052e-02 9.765037643900635188e-05 1.930242980462695823e-03
8.433000000000000066e-05 7.888776783401378612e-02 1.317235490470395893e-04 2.021055815200022837e-03
1.062000000000000064e-04 9.938561165478684845e-02 1.740088341640037047e-04 2.104789529260958983e-03
1.321000000000000126e-04 1.236720406455826121e-01 2.260189757651373944e-04 2.178291718403657477e-03
1.623999999999999901e-04 1.520974545104751274e-01 2.888169908545388338e-04 2.240170365918073281e-03
1.689999999999999879e-04 1.582907717069566844e-01 3.027354772999506964e-04 2.254509350360745651e-03
1.758999999999999930e-04 1.647661861691531171e-01 3.173785841705756782e-04 2.268169273277113179e-03
1.830000000000000029e-04 1.714298948183871907e-01 3.325196584577469103e-04 2.276170334580628063e-03
1.901999999999999882e-04 1.781880600978280049e-01 3.479577791899843742e-04 2.292561569242367037e-03
1.977000000000000079e-04 1.852284385240466902e-01 3.641242634600037713e-04 2.299943765467868384e-03
2.054000000000000053e-04 1.924572004474696396e-01 3.808304060475003897e-04 2.322187632288155723e-03
2.079000000000000119e-04 1.948043378760714872e-01 3.864137987380476553e-04 2.435429768083530178e-03
2.081999999999999921e-04 1.950859988578999005e-01 3.870314100985603909e-04 1.950065624557156818e-03
2.090999999999999868e-04 1.959309855029948977e-01 3.881261957135444685e-04 6.411875526909013856e-04
2.159999999999999919e-04 2.024093317906446865e-01 3.940874488768042125e-04 1.199166870571831411e-03
2.231000000000000019e-04 2.090756740932291913e-01 4.013938420547467825e-04 9.928616047829054436e-04
2.311000000000000066e-04 2.165873044433437034e-01 4.085241694843774404e-04 9.056166966301716637e-04
2.401000000000000085e-04 2.250381721984245909e-01 4.159700687886608468e-04 8.565463878902855599e-04
2.500000000000000052e-04 2.343344406330727658e-01 4.237602369176299592e-04 8.194318812157330018e-04
2.642999999999999733e-04 2.477629128650125634e-01 4.345596643180389446e-04 7.890063723638815647e-04
3.052999999999999941e-04 2.862671839140227270e-01 4.644058706720978241e-04 7.612775562167708662e-04
3.533000000000000224e-04 3.313503829113090826e-01 4.987577676308450197e-04 7.626578558207241024e-04
4.075999999999999871e-04 3.823564017794535141e-01 5.381334366106255759e-04 7.813048116943254948e-04
4.679999999999999915e-04 4.390986251953180042e-01 5.832692638200615834e-04 8.096035963157804938e-04
5.341000000000000261e-04 5.012024644415256081e-01 6.346556894078133086e-04 8.452514814113673558e-04
6.059000000000000366e-04 5.686690698184251325e-01 6.930641302632923034e-04 8.862253587289389486e-04
7.661000000000000275e-04 7.192254882508629654e-01 8.328184776562496576e-04 9.702780530519144065e-04
1.262000000000000101e-03 1.185459127778160093e+00 1.338484980802662205e-03 1.198863597978450275e-03
1.894999999999999983e-03 1.780909071169781921e+00 2.123481960401060308e-03 1.437771491635827115e-03
2.673000000000000029e-03 2.513147344746868850e+00 3.261860252001994032e-03 1.671524566936786766e-03
3.605999999999999830e-03 3.391736073717691369e+00 4.828136641022434151e-03 1.893900408978071038e-03
4.709999999999999777e-03 4.431905410739045870e+00 6.903512974832482635e-03 2.096551352830673849e-03
7.496000000000000059e-03 7.058993649504918366e+00 1.289742191321638018e-02 2.466596387205546859e-03
1.119999999999999989e-02 1.055540362104863661e+01 2.212077014004794340e-02 2.809304433764861584e-03
1.600000000000000033e-02 1.509117352747679952e+01 3.559566804390756900e-02 3.132325055719984222e-03
2.206999999999999934e-02 2.083310616724802244e+01 5.457322122755020599e-02 3.477840948757840792e-03
2.947999999999999926e-02 2.785007348564149154e+01 8.049103664263126956e-02 3.909302116317729670e-03
4.268000000000000266e-02 4.036707211535221518e+01 1.353887601042819133e-01 4.862066536253286525e-03
6.219999999999999835e-02 5.891246509830522626e+01 2.419691225623893105e-01 6.630786177272363080e-03
7.316999999999999893e-02 6.935151695866235855e+01 3.161896974764099033e-01 7.588671314871411888e-03
7.595999999999999974e-02 7.200836722020332559e+01 3.371250777904805096e-01 8.170805199905812125e-03
7.685877551020407761e-02 7.286441684582476341e+01 3.442139512467168316e-01 8.391013863726011837e-03
7.775755102040816935e-02 7.372055050489811379e+01 3.514978199457576835e-01 8.624704021815051899e-03
7.865632653061224722e-02 7.457676954567999417e+01 3.589880852141877354e-01 8.871427871516962202e-03
7.955510204081632508e-02 7.543307541374734626e+01 3.666957701661143765e-01 9.130737610175788249e-03
8.045387755102040295e-02 7.628946964442523893e+01 3.746315196856483398e-01 9.402185435135559932e-03
8.135265306122449469e-02 7.714595385555359996e+01 3.828056004076848540e-01 9.685323543740322755e-03
8.225142857142857256e-02 7.800252974057248423e+01 3.912279006952114613e-01 9.979704133334104874e-03
8.315020408163265042e-02 7.885919906191006135e+01 3.999079306115408405e-01 1.028487940126094312e-02
8.404897959183672829e-02 7.971596364465592899e+01 4.088548218860216799e-01 1.060040154486487779e-02
8.494775510204082003e-02 8.057282537050443239e+01 4.180773278719314701e-01 1.092582276148994398e-02
8.584653061224489790e-02 8.142978617195386448e+01 4.275838234953884265e-01 1.126069524848017332e-02
8.674530612244897576e-02 8.228684802674872856e+01 4.373823051942516416e-01 1.160457120317961305e-02
8.764408163265305363e-02 8.314401295255063928e+01 4.474803908460919799e-01 1.195700282293228958e-02
8.854285714285714537e-02 8.400128300182780094e+01 4.578853196844329121e-01 1.231754230508225190e-02
8.944163265306122323e-02 8.485866025695048620e+01 4.686039522025597370e-01 1.268574184697351948e-02
9.034040816326530110e-02 8.571614682548339204e+01 4.796427700442978392e-01 1.306115364595014129e-02
9.123918367346939284e-02 8.657374483566321999e+01 4.910078758812447819e-01 1.344332989935614897e-02
9.213795918367347071e-02 8.743145643205427575e+01 5.027049932760314643e-01 1.383182280453558108e-02
9.303673469387754857e-02 8.828928377137118844e+01 5.147394665312668982e-01 1.422618455883246924e-02
9.393551020408162644e-02 8.914722901846216985e+01 5.271162605238920440e-01 1.462596735959086069e-02
9.483428571428570431e-02 9.000529434244415938e+01 5.398399605247423683e-01 1.503072340415478013e-02
9.573306122448979605e-02 9.086348191298280597e+01 5.529147720031838409e-01 1.544000488986827478e-02
9.663183673469387391e-02 9.172179389670964156e+01 5.663445204167461000e-01 1.585336401407537454e-02
9.753061224489795178e-02 9.258023245377174248e+01 5.801326509857419600e-01 1.627035297412011278e-02
9.842938775510204352e-02 9.343879973450535203e+01 5.942822284529072352e-01 1.669052396734654192e-02
9.932816326530612139e-02 9.429749787622893109e+01 6.087959368281558037e-01 1.711342919109867453e-02
1.002269387755101993e-01 9.515632900015056350e+01 6.236760791185907982e-01 1.753862084272056476e-02
1.011257142857142910e-01 9.601529520838296605e+01 6.389245770439545558e-01 1.796565111955625640e-02
1.020244897959183689e-01 9.687439858106274926e+01 6.545429707377498074e-01 1.839407221894975852e-02
1.029232653061224467e-01 9.773364117356761938e+01 6.705324184343046667e-01 1.882343633824511836e-02
1.038220408163265246e-01 9.859302501382903472e+01 6.868936961420871734e-01 1.925329567478639009e-02
1.047208163265306025e-01 9.945255209973437616e+01 7.036271973036203331e-01 1.968320242591758973e-02
1.056195918367346942e-01 1.003122243966153206e+02 7.207329324423776828e-01 2.011270878898276798e-02
1.065183673469387721e-01 1.011720438348190640e+02 7.382105287970746055e-01 2.054136696132595127e-02
1.074171428571428499e-01 1.020320123073577605e+02 7.560592299438042563e-01 2.096872914029117990e-02
1.083159183673469417e-01 1.028921316676342030e+02 7.742778954064909458e-01 2.139434752322249417e-02
1.092146938775510195e-01 1.037524037272389990e+02 7.928650002561683507e-01 2.181777430746392049e-02
1.101134693877550974e-01 1.046128302538172790e+02 8.118186346996166813e-01 2.223856169035950264e-02
1.110122448979591891e-01 1.054734129690018420e+02 8.311365036579124732e-01 2.265626186925327745e-02
1.119110204081632531e-01 1.063341535464090413e+02 8.508159263354748703e-01 2.307042704148928175e-02
1.128097959183673449e-01 1.071950536096964726e+02 8.708538357802200203e-01 2.348060940441154890e-02
1.137085714285714227e-01 1.080561147306783312e+02 8.912467784354396461e-01 2.388636115536411919e-02
1.146073469387755006e-01 1.089173384274974268e+02 9.119909136840687047e-01 2.428723449169102253e-02
1.155061224489795924e-01 1.097787261628498641e+02 9.330820133860001642e-01 2.468278161073630961e-02
1.164048979591836702e-01 1.106402793422629571e+02 9.545154614091415635e-01 2.507255470984399992e-02
1.173036734693877481e-01 1.115019993124208924e+02 9.762862531549248990e-01 2.545610598635813376e-02
1.182024489795918398e-01 1.123638873595397740e+02 9.983889950789895940e-01 2.583298763762276185e-02
1.191012244897959177e-01 1.132259447077868231e+02 1.020817904207786064e+00 2.620275186098190712e-02
1.199999999999999956e-01 1.140881725177449653e+02 1.043566807651862938e+00 2.656495085377960641e-02
1.234536826624350186e-01 1.174030294126507385e+02 1.133856179865858405e+00 2.791019235420256692e-02
1.269073653248700417e-01 1.207204755857818839e+02 1.228698994397721123e+00 2.926756913096184229e-02
1.303610479873050787e-01 1.240405650951254017e+02 1.328139044352494746e+00 3.063400221913646984e-02
1.338147306497400879e-01 1.273633501617824351e+02 1.432210027472971881e+00 3.200634538149401548e-02
1.372684133121751249e-01 1.306888810481821679e+02 1.540935278929242980e+00 3.338138594782004420e-02
1.407220959746101618e-01 1.340172059418211177e+02 1.654327503359056539e+00 3.475584550095846270e-02
1.441757786370451710e-01 1.373483708438265012e+02 1.772388505762198418e+00 3.612638041469433403e-02
1.476294612994802080e-01 1.406824194617318824e+02 1.895108920879201797e+00 3.748958224720309179e-02
1.510831439619152172e-01 1.440193931059349097e+02 2.022467940707418865e+00 3.884197799257611133e-02
1.545368266243502542e-01 1.473593305893672323e+02 2.154433039826427532e+00 4.018003019186980329e-02
1.579905092867852634e-01 1.507022681299663134e+02 2.290959698220295326e+00 4.150013690419242229e-02
1.614441919492203004e-01 1.540482392555842068e+02 2.431991121297027103e+00 4.279863153750841642e-02
1.648978746116553373e-01 1.573972747110090040e+02 2.577457956815637274e+00 4.407178253809232449e-02
1.683515572740903465e-01 1.607494023668104717e+02 2.727278008439317336e+00 4.531579293688035165e-02
1.718052399365253835e-01 1.641046471297491678e+02 2.881355945639071159e+00 4.652679975033772314e-02
1.752589225989603927e-01 1.674630308545173989e+02 3.039583009676347203e+00 4.770087323287115072e-02
1.787126052613954297e-01 1.708245722565984295e+02 3.201836715395753430e+00 4.883401597725934434e-02
1.821662879238304389e-01 1.741892868260547971e+02 3.367980548559899923e+00 4.992216185903902703e-02
1.856199705862654759e-01 1.775571867420669037e+02 3.537863658458145544e+00 5.096117482026681772e-02
1.890736532487005128e-01 1.809282807880657629e+02 3.711320545519317005e+00 5.194684748756674131e-02
1.925273359111355220e-01 1.843025742673068521e+02 3.888170743655719797e+00 5.287489961886889661e-02
1.959810185735705312e-01 1.876800689187527666e+02 4.068218497061761418e+00 5.374097637273504008e-02
1.994347012360055960e-01 1.910607628331333387e+02 4.251252431185506886e+00 5.454064639365517608e-02
2.028883838984406052e-01 1.944446503690676593e+02 4.437045217585424695e+00 5.526939970617147924e-02
2.063420665608756144e-01 1.978317220691317289e+02 4.625353232377601209e+00 5.592264541014804052e-02
2.097957492233106513e-01 2.012219645757711817e+02 4.815916207970618146e+00 5.649570916894392641e-02
2.132494318857456883e-01 2.046153605469542356e+02 5.008456877776453986e+00 5.698383048166631715e-02
2.167031145481806975e-01 2.080118885714713031e+02 5.202680613575920709e+00 5.738215973007106813e-02
2.201567972106157345e-01 2.114115230837893762e+02 5.398275055206412709e+00 5.768575499004058998e-02
2.236104798730507714e-01 2.148142342783726804e+02 5.594909732228153132e+00 5.788957859689480151e-02
2.270641625354857807e-01 2.182199880233822284e+02 5.792235677212708822e+00 5.798849345308359354e-02
2.305178451979207899e-01 2.216287457736740407e+02 5.989885030284193057e+00 5.797725906605600416e-02
2.339715278603558268e-01 2.250404644830121015e+02 6.187470634529443458e+00 5.785052730330700332e-02
2.374252105227908638e-01 2.284550965154143682e+02 6.384585621878499317e+00 5.760283785075712842e-02
2.408788931852258730e-01 2.318725895555586476e+02 6.580802989040923201e+00 5.722861335972388025e-02
2.443325758476609100e-01 2.352928865181621347e+02 6.775675163066901874e+00 5.672215426678822031e-02
2.477862585100959192e-01 2.387159254562633919e+02 6.968733556084700353e+00 5.607763326984391283e-02
2.512399411725309561e-01 2.421416394683238309e+02 7.159488108747964930e+00 5.528908944253665275e-02
2.546936238349659654e-01 2.455699566040750881e+02 7.347426821907442118e+00 5.435042196814705850e-02
2.581473064974010301e-01 2.490007997690293280e+02 7.532015276002231197e+00 5.325538347274432621e-02
2.616009891598360393e-01 2.524340866275772726e+02 7.712696137645389527e+00 5.199757293612965875e-02
2.650546718222710485e-01 2.558697295045922715e+02 7.888888652858041972e+00 5.057042815769500349e-02
2.685083544847061132e-01 2.593076352854581614e+02 8.059988126384686424e+00 4.896721775283800759e-02
2.719620371471410669e-01 2.627477053144421575e+02 8.225365386500703480e+00 4.718103265399218454e-02
2.754157198095761316e-01 2.661898352913257213e+02 8.384366234700953768e+00 4.520477708864635569e-02
2.788694024720111964e-01 2.696339151662107270e+02 8.536310879635808035e+00 4.303115900493613422e-02
2.823230851344461501e-01 2.730798290324100321e+02 8.680493354638668890e+00 4.065267991347811666e-02
2.857767677968812148e-01 2.765274550173418788e+02 8.816180918166425684e+00 3.806162411209058904e-02
2.892304504593162240e-01 2.799766651713247825e+02 8.942613436452054643e+00 3.525004725788483118e-02
3.649604412662689201e-01 3.570086820630713760e+02 2.234431222371712522e+01 3.066293858857773724e-01
4.406904320732216718e-01 4.387704017911764822e+02 5.914079411780566176e+01 5.780087245136701357e-01
5.164204228801744234e-01 5.288307809088785234e+02 1.245614043970280704e+02 8.493880631415628990e-01
5.921504136871271751e-01 6.301838176793448838e+02 1.925924534986741605e+02 5.196219761353613187e-01
6.678804044940798157e-01 7.386965921200098819e+02 2.440998508923631221e+02 4.337640322044645780e-01
7.436103953010325673e-01 8.527994216214333392e+02 2.925937198587405987e+02 4.170669935676055151e-01
8.193403861079853190e-01 9.718570884486709929e+02 3.412140775207735146e+02 4.003699549307463967e-01
8.950703769149379596e-01 1.095406025543376700e+03 3.896125825658248232e+02 3.836729162938873339e-01
9.708003677218908223e-01 1.223033631359922992e+03 4.374835235678130516e+02 3.669758776570282155e-01
1.046530358528843463e+00 1.354369364843808171e+03 4.845571347732497998e+02 3.502788390201691526e-01
1.122260349335796104e+00 1.489078001045463225e+03 5.305944254812546887e+02 3.335818003833100898e-01
1.197990340142748966e+00 1.626854401743089511e+03 5.753830838682110880e+02 3.168847617464509714e-01
1.273720330949701607e+00 1.767419378768849583e+03 6.187341660980283677e+02 3.001877231095919085e-01
1.349450321756654247e+00 1.910516364716689623e+03 6.604793738473584881e+02 2.834906844727328457e-01
1.425180312563607110e+00 2.055908692824727041e+03 7.004687823185743127e+02 2.667936458358737273e-01
1.500910303370559751e+00 2.203377344975974211e+03 7.385689196841485682e+02 2.500966071990146644e-01
1.576640294177512391e+00 2.353046757744289607e+03 7.957975761886806367e+02 5.113045909093918429e-01
1.652370284984465254e+00 2.506244279137487865e+03 8.845263958191172833e+02 6.442894321152926596e-01
1.728100275791417895e+00 2.663941132527058926e+03 9.871310207366113900e+02 6.567811826534664110e-01
1.803830266598370757e+00 2.826243352068167042e+03 1.094759624421580384e+03 6.692729331916400515e-01
1.879560257405323398e+00 2.993171157702382516e+03 1.207540925107614385e+03 6.817646837298138029e-01
1.955290248212276039e+00 3.164748393305273567e+03 1.325606894079351150e+03 6.942564342679874434e-01
2.031020239019229123e+00 3.341002230760171187e+03 1.449092729135152013e+03 7.067481848061611949e-01
2.106750229826181542e+00 3.521962917466082217e+03 1.578136840603588098e+03 7.192399353443348353e-01
