# density  energy_density  pressure   sound_speed_squared  [All in nuclear units]
2.720000000000000022e-14 2.529924618736292620e-11 1.061056609100270887e-19 3.766610435412189122e-08
1.269999999999999890e-13 1.181251617980081254e-10 4.870113551826584858e-18 6.497781477172163475e-08
6.929999999999999754e-13 6.445728594625782745e-10 1.018299070687946017e-16 3.033770597342807186e-07
6.295000000000000137e-12 5.855111460395753757e-09 5.487150723824490656e-15 1.763710043904196507e-06
1.581000000000000150e-11 1.470523320212576141e-08 2.904239460150760759e-14 3.559434472327477622e-06
3.971999999999999958e-11 3.694456170323160790e-08 1.439340266754906811e-13 6.772854871245677111e-06
9.975999999999999982e-11 9.278976412613005154e-08 6.812143616221268841e-13 1.246890511177539320e-05
2.505999999999999928e-10 2.330928829758143313e-07 3.107749196951638608e-12 2.212095130576091967e-05
6.294000000000000186e-10 5.854398883216247602e-07 1.363250409771533549e-11 3.761981047239428883e-05
1.581000000000000021e-09 1.470619631082054101e-06 5.726014178088476303e-11 6.095350986710739404e-05
3.971999999999999932e-09 3.694861084648016046e-06 2.210019573374265380e-10 8.628023653304385055e-05
5.000000000000000105e-09 4.651201787816927976e-06 3.071485916280120014e-10 9.387863480799757518e-05
9.975999999999999465e-09 9.280587964640925786e-06 8.385361004129998845e-10 1.356922228656245837e-04
1.989999999999999952e-08 1.851419242998081003e-05 2.287763168863418088e-09 1.782101978513718314e-04
3.972999999999999908e-08 3.696699295748789187e-05 6.061583099087538954e-09 2.308134738384234820e-04
7.925999999999999637e-08 7.375765469301719828e-05 1.575347858094044765e-08 2.960532096713864875e-04
1.580999999999999930e-07 1.471491184379128891e-04 3.910429618672550719e-08 3.402859755131850544e-04
1.991000000000000027e-07 1.853209783927820692e-04 5.252045687899177454e-08 3.626488188833278743e-04
3.155999999999999938e-07 2.938002528823880299e-04 9.730770378831954314e-08 4.630767356912104081e-04
5.000999999999999849e-07 4.656344063839075714e-04 1.837494945860225819e-07 5.430301232045120323e-04
6.295999999999999732e-07 5.862651417037388971e-04 2.503103884558263872e-07 5.605192962670089638e-04
9.666999999999999941e-07 9.003386739730535665e-04 4.324450868778576936e-07 5.993081670211623108e-04
1.531999999999999901e-06 1.427170885631398036e-03 7.780217275717420968e-07 7.125938556504039095e-04
2.506999999999999883e-06 2.336134972129507662e-03 1.471005394641589826e-06 8.121876172121876309e-04
3.974000000000000407e-06 3.704315759716615697e-03 2.695705763844323844e-06 9.780674166779417152e-04
4.830000000000000343e-06 4.502887798316278223e-03 3.503988717694660908e-06 1.046253037768318664e-03
6.080999999999999885e-06 5.670217999231269741e-03 4.731126407333307547e-06 1.056224360839501646e-03
7.930000000000000308e-06 7.396012414119570652e-03 6.599662989063778187e-06 1.109203753630785610e-03
9.982000000000000313e-06 9.311815711689977113e-03 8.879881089227186733e-06 1.271216815433141075e-03
1.256999999999999993e-05 1.172874412604260098e-02 1.207676739913533738e-05 1.374195438212825332e-03
1.521999999999999997e-05 1.420427250933824909e-02 1.547541302213394990e-05 1.371610497379100249e-03
1.991000000000000080e-05 1.858690797761085312e-02 2.160710455847765458e-05 1.426578142835871997e-03
2.506999999999999883e-05 2.341050104039446925e-02 2.908031724375689851e-05 1.672007475975408053e-03
2.790999999999999875e-05 2.606604784714952258e-02 3.357009132255487721e-05 1.709425557744154774e-03
3.806999999999999973e-05 3.556967988784798945e-02 4.986781576435106434e-05 1.720407281314112165e-03
5.063000000000000145e-05 4.732434580343149871e-02 7.073400252905581275e-05 1.829889149838781265e-03
6.592000000000000583e-05 6.164112392498975052e-02 9.765037643900635188e-05 1.930242980462695823e-03
8.433000000000000066e-05 7.888776783401378612e-02 1.317235490470395893e-04 2.021055815200022837e-03
1.062000000000000064e-04 9.938561165478684845e-02 1.740088341640037047e-04 2.104789529260958983e-03
1.321000000000000126e-04 1.236720406455826121e-01 2.260189757651373944e-04 2.178291718403657477e-03
1.623999999999999901e-04 1.520974545104751274e-01 2.888169908545388338e-04 2.240170365918073281e-03
1.689999999999999879e-04 1.582907717069566844e-01 3.027354772999506964e-04 2.254509350360745651e-03
1.758999999999999930e-04 1.647661861691531171e-01 3.173785841705756782e-04 2.268169273277113179e-03
1.830000000000000029e-04 1.714298948183871907e-01 3.325196584577469103e-04 2.276170334580628063e-03
1.901999999999999882e-04 1.781880600978280049e-01 3.479577791899843742e-04 2.292561569242367037e-03
1.977000000000000079e-04 1.852284385240466902e-01 3.641242634600037713e-04 2.299943765467868384e-03
2.054000000000000053e-04 1.924572004474696396e-01 3.808304060475003897e-04 2.322187632288155723e-03
2.079000000000000119e-04 1.948043378760714872e-01 3.864137987380476553e-04 2.435429768083530178e-03
2.081999999999999921e-04 1.950859988578999005e-01 3.870314100985603909e-04 1.950065624557156818e-03
2.090999999999999868e-04 1.959309855029948977e-01 3.881261957135444685e-04 6.411875526909013856e-04
2.159999999999999919e-04 2.024093317906446865e-01 3.940874488768042125e-04 1.199166870571831411e-03
2.231000000000000019e-04 2.090756740932291913e-01 4.013938420547467825e-04 9.928616047829054436e-04
2.311000000000000066e-04 2.165873044433437034e-01 4.085241694843774404e-04 9.056166966301716637e-04
2.401000000000000085e-04 2.250381721984245909e-01 4.159700687886608468e-04 8.565463878902855599e-04
2.500000000000000052e-04 2.343344406330727658e-01 4.237602369176299592e-04 8.194318812157330018e-04
2.642999999999999733e-04 2.477629128650125634e-01 4.345596643180389446e-04 7.890063723638815647e-04
3.052999999999999941e-04 2.862671839140227270e-01 4.644058706720978241e-04 7.612775562167708662e-04
3.533000000000000224e-04 3.313503829113090826e-01 4.987577676308450197e-04 7.626578558207241024e-04
4.075999999999999871e-04 3.823564017794535141e-01 5.381334366106255759e-04 7.813048116943254948e-04
4.679999999999999915e-04 4.390986251953180042e-01 5.832692638200615834e-04 8.096035963157804938e-04
5.341000000000000261e-04 5.012024644415256081e-01 6.346556894078133086e-04 8.452514814113673558e-04
6.059000000000000366e-04 5.686690698184251325e-01 6.930641302632923034e-04 8.862253587289389486e-04
7.661000000000000275e-04 7.192254882508629654e-01 8.328184776562496576e-04 9.702780530519144065e-04
1.262000000000000101e-03 1.185459127778160093e+00 1.338484980802662205e-03 1.198863597978450275e-03
1.894999999999999983e-03 1.780909071169781921e+00 2.123481960401060308e-03 1.437771491635827115e-03
2.673000000000000029e-03 2.513147344746868850e+00 3.261860252001994032e-03 1.671524566936786766e-03
3.605999999999999830e-03 3.391736073717691369e+00 4.828136641022434151e-03 1.893900408978071038e-03
4.709999999999999777e-03 4.431905410739045870e+00 6.903512974832482635e-03 2.096551352830673849e-03
7.496000000000000059e-03 7.058993649504918366e+00 1.289742191321638018e-02 2.466596387205546859e-03
1.119999999999999989e-02 1.055540362104863661e+01 2.212077014004794340e-02 2.809304433764861584e-03
1.600000000000000033e-02 1.509117352747679952e+01 3.559566804390756900e-02 3.132325055719984222e-03
2.206999999999999934e-02 2.083310616724802244e+01 5.457322122755020599e-02 3.477840948757840792e-03
2.947999999999999926e-02 2.785007348564149154e+01 8.049103664263126956e-02 3.909302116317729670e-03
4.268000000000000266e-02 4.036707211535221518e+01 1.353887601042819133e-01 4.862066536253286525e-03
6.219999999999999835e-02 5.891246509830522626e+01 2.419691225623893105e-01 6.630786177272363080e-03
7.316999999999999893e-02 6.935151695866235855e+01 3.161896974764099033e-01 7.588671314871411888e-03
7.595999999999999974e-02 7.200836722020332559e+01 3.371250777904805096e-01 8.170805199905812125e-03
7.685877551020407761e-02 7.286441684240442385e+01 3.442133659034909976e-01 8.389646452597597157e-03
7.775755102040816935e-02 7.372055048205002947e+01 3.514950723422200496e-01 8.621020715595372960e-03
7.865632653061224722e-02 7.457676946461360501e+01 3.589807746327122739e-01 8.864454103010122044e-03
7.955510204081632508e-02 7.543307520386659348e+01 3.666806493959103852e-01 9.119472728952828650e-03
8.045387755102040295e-02 7.628946919435598772e+01 3.746044723009447353e-01 9.385602707534480491e-03
8.135265306122449469e-02 7.714595300421740376e+01 3.827616180147443425e-01 9.662370152866070483e-03
8.225142857142857256e-02 7.800252826830464414e+01 3.911610601463413883e-01 9.949301179058572461e-03
8.315020408163265042e-02 7.885919668161992035e+01 3.998113711844142326e-01 1.024592190022297934e-02
8.404897959183672829e-02 7.971595999302670066e+01 4.087207224267663253e-01 1.055175843047027537e-02
8.494775510204082003e-02 8.057281999923065996e+01 4.178968839005889890e-01 1.086633688391145519e-02
8.584653061224489790e-02 8.142977853901507501e+01 4.273472242724893344e-01 1.118918337465748571e-02
8.674530612244897576e-02 8.228683748771631201e+01 4.370787107473943500e-01 1.151982401681937024e-02
8.764408163265305363e-02 8.314399875192675893e+01 4.470979089555564001e-01 1.185778492450808783e-02
8.854285714285714537e-02 8.400126426441475758e+01 4.574109828270006006e-01 1.220259221183463312e-02
8.944163265306122323e-02 8.485863597924867463e+01 4.680236944528542442e-01 1.255377199290997822e-02
9.034040816326530110e-02 8.571611586711578923e+01 4.789414039330985862e-01 1.291085038184511778e-02
9.123918367346939284e-02 8.657370591082603539e+01 4.901690692103696234e-01 1.327335349275103951e-02
9.213795918367347071e-02 8.743140810099109217e+01 5.017112458895225391e-01 1.364080743973871898e-02
9.303673469387754857e-02 8.828922443187002500e+01 5.135720870427543661e-01 1.401273833691915605e-02
9.393551020408162644e-02 8.914715689737391813e+01 5.257553430001496997e-01 1.438867229840332627e-02
9.483428571428570431e-02 9.000520748722114206e+01 5.382643611255895078e-01 1.476813543830221911e-02
9.573306122448979605e-02 9.086337818323609383e+01 5.511020855780265348e-01 1.515065387072682748e-02
9.663183673469387391e-02 9.172167095578491569e+01 5.642710570581909169e-01 1.553575370978812521e-02
9.753061224489795178e-02 9.258008776034100151e+01 5.777734125408535704e-01 1.592296106959710522e-02
9.842938775510204352e-02 9.343863053417507558e+01 5.916108849928226610e-01 1.631180206426476390e-02
9.932816326530612139e-02 9.429730119316286618e+01 6.057848030769045211e-01 1.670180280790205946e-02
1.002269387755101993e-01 9.515610162870632394e+01 6.202960908421119024e-01 1.709248941462000043e-02
1.011257142857142910e-01 9.601503370476207522e+01 6.351452674004406385e-01 1.748338799852957801e-02
1.020244897959183689e-01 9.687409925497235008e+01 6.503324465905861995e-01 1.787402467374175560e-02
1.029232653061224467e-01 9.773330007989433454e+01 6.658573366290131412e-01 1.826392555436753135e-02
1.038220408163265246e-01 9.859263794432320083e+01 6.817192397488227584e-01 1.865261675451789641e-02
1.047208163265306025e-01 9.945211457470472283e+01 6.979170518269101064e-01 1.903962438830382811e-02
1.056195918367346942e-01 1.003117316566327020e+02 7.144492619999298633e-01 1.942447456983632456e-02
1.065183673469387721e-01 1.011714908324297966e+02 7.313139522696263661e-01 1.980669341322635613e-02
1.074171428571428499e-01 1.020313936988048908e+02 7.485087970981189054e-01 2.018580703258491399e-02
1.083159183673469417e-01 1.028914418045866057e+02 7.660310629937536753e-01 2.056134154202299280e-02
1.092146938775510195e-01 1.037516366485284891e+02 7.838776080881715291e-01 2.093282305565156987e-02
1.101134693877550974e-01 1.046119796771820774e+02 8.020448817052668877e-01 2.129977768758163637e-02
1.110122448979591891e-01 1.054724722828369750e+02 8.205289239227321341e-01 2.166173155192417654e-02
1.119110204081632531e-01 1.063331158015232774e+02 8.393253651269140247e-01 2.201821076279016770e-02
1.128097959183673449e-01 1.071939115110749015e+02 8.584294255617338498e-01 2.236874143429060796e-02
1.137085714285714227e-01 1.080548606292508396e+02 8.778359148724310668e-01 2.271284968053648157e-02
1.146073469387755006e-01 1.089159643119126599e+02 8.975392316449357644e-01 2.305006161563877276e-02
1.155061224489795924e-01 1.097772236512547579e+02 9.175333629416722037e-01 2.337990335370847272e-02
1.164048979591836702e-01 1.106386396740864768e+02 9.378118838346291009e-01 2.370190100885655182e-02
1.173036734693877481e-01 1.115002133401642226e+02 9.583679569365516349e-01 2.401558069519401165e-02
1.182024489795918398e-01 1.123619455405699057e+02 9.791943319311189331e-01 2.432046852683183297e-02
1.191012244897959177e-01 1.132238370961364495e+02 1.000283345102995769e+00 2.461609061788100003e-02
1.199999999999999956e-01 1.140858887559158745e+02 1.021626918868666190e+00 2.490197308245250749e-02
1.228969204452944053e-01 1.168655428154974629e+02 1.092065760772094940e+00 2.577954843063534965e-02
1.257938408905888150e-01 1.196468866604293453e+02 1.165007459673075063e+00 2.667092213419153951e-02
1.286907613358832247e-01 1.224299394815468958e+02 1.240492564789583252e+00 2.757511580643570021e-02
1.315876817811776067e-01 1.252147204885759351e+02 1.318558941161584785e+00 2.849109361348593772e-02
1.344846022264720165e-01 1.280012488479727324e+02 1.399241604429541486e+00 2.941776377762361783e-02
1.373815226717664262e-01 1.307895436225948060e+02 1.482572558774743587e+00 3.035398000659763132e-02
1.402784431170608359e-01 1.335796237130746817e+02 1.568580637812474476e+00 3.129854284932714198e-02
1.431753635623552456e-01 1.363715078007793124e+02 1.657291348232863060e+00 3.225020097881813042e-02
1.460722840076496554e-01 1.391652142922482938e+02 1.748726715989166181e+00 3.320765240340455698e-02
1.489692044529440651e-01 1.419607612650129624e+02 1.842905134838904280e+00 3.416954560766054944e-02
1.518661248982384748e-01 1.447581664147052152e+02 1.939841217049622424e+00 3.513448062451744736e-02
1.547630453435328568e-01 1.475574470033736247e+02 2.039545646087934649e+00 3.610101004026542576e-02
1.576599657888272665e-01 1.503586198089285517e+02 2.142025031117830380e+00 3.706763993423229514e-02
1.605568862341216763e-01 1.531617010756447428e+02 2.247281763141859123e+00 3.803283075501608795e-02
1.634538066794160860e-01 1.559667064656532602e+02 2.355313872626775051e+00 3.899499813521242059e-02
1.663507271247104957e-01 1.587736510113612098e+02 2.466114888463340815e+00 3.995251364662369409e-02
1.692476475700048777e-01 1.615825490687399792e+02 2.579673698118348124e+00 4.090370549797296001e-02
1.721445680152993152e-01 1.643934142714257689e+02 2.695974408845404735e+00 4.184685917717242271e-02
1.750414884605936972e-01 1.672062594855830469e+02 2.814996209829637497e+00 4.278021804021897578e-02
1.779384089058881069e-01 1.700210967654804790e+02 2.936713235150305579e+00 4.370198384881093800e-02
1.808353293511825166e-01 1.728379373097337179e+02 3.061094427454052802e+00 4.461031725875760912e-02
1.837322497964769263e-01 1.756567914181737535e+02 3.188103402240987094e+00 4.550333826158390466e-02
1.866291702417713361e-01 1.784776684492986760e+02 3.317698312674382866e+00 4.637912658086155299e-02
1.895260906870657180e-01 1.813005767782723581e+02 3.449831714834513008e+00 4.723572202631849681e-02
1.924230111323601555e-01 1.841255237554333632e+02 3.584450433347030174e+00 4.807112480736202426e-02
1.953199315776545375e-01 1.869525156652817373e+02 3.721495427325602012e+00 4.888329580857295881e-02
1.982168520229489472e-01 1.897815576859120767e+02 3.860901656578990426e+00 4.967015682951139016e-02
2.011137724682433570e-01 1.926126538488636868e+02 4.002597948043026932e+00 5.042959079129324257e-02
2.040106929135377667e-01 1.954458069993615652e+02 4.146506862408840810e+00 5.115944191249002099e-02
2.069076133588321764e-01 1.982810187569216396e+02 4.292544560929801634e+00 5.185751585701067062e-02
2.098045338041265584e-01 2.011182894762984006e+02 4.440620672401291102e+00 5.252157985674534707e-02
2.127014542494209959e-01 2.039576182087539564e+02 4.590638160319556071e+00 5.314936281188790967e-02
2.155983746947153779e-01 2.067990026636269647e+02 4.742493190238501022e+00 5.373855537200721011e-02
2.184952951400097876e-01 2.096424391701878278e+02 4.896074997356632430e+00 5.428681000110598120e-02
2.213922155853041973e-01 2.124879226397603986e+02 5.051265754380133366e+00 5.479174103009420982e-02
2.242891360305986070e-01 2.153354465280990553e+02 5.207940439722943182e+00 5.525092470042320542e-02
2.271860564758930168e-01 2.181850027980106574e+02 5.365966706119172258e+00 5.566189920204183544e-02
2.300829769211873987e-01 2.210365818822076278e+02 5.525204749740831645e+00 5.602216471148418336e-02
2.329798973664818362e-01 2.238901726463893453e+02 5.685507179930111121e+00 5.632918343217121343e-02
2.358768178117762182e-01 2.267457623525413624e+02 5.846718889672510855e+00 5.658037964324440922e-02
2.387737382570706279e-01 2.296033366224530710e+02 6.008676926957587483e+00 5.677313976118404659e-02
2.416706587023650377e-01 2.324628794014505218e+02 6.171210367193078916e+00 5.690481241955896996e-02
2.445675791476594474e-01 2.353243729223437128e+02 6.334140186859455568e+00 5.697270857247211523e-02
2.474644995929538571e-01 2.381877976695953407e+02 6.497279138613953897e+00 5.697410162760912361e-02
2.503614200382482391e-01 2.410531323437119227e+02 6.660431628076418420e+00 5.690622761515710948e-02
2.532583404835426766e-01 2.439203538258694550e+02 6.823393592553698817e+00 5.676628539922924654e-02
2.561552609288370586e-01 2.467894371427807130e+02 6.985952381984888326e+00 5.655143693881296146e-02
2.590521813741314405e-01 2.496603554318189424e+02 7.147886642416581893e+00 5.625880760564509753e-02
2.619491018194258780e-01 2.525330799064135192e+02 7.308966202345190233e+00 5.588548656680944471e-02
3.382358548435192569e-01 3.307915795797464966e+02 3.512001397771648925e+01 6.227286883783111904e-01
4.145226078676125803e-01 4.187452584574483012e+02 8.417940618369590311e+01 5.048381192455554389e-01
4.908093608917059036e-01 5.152166089671090958e+02 1.268503281355079935e+02 3.869475501127997430e-01
5.670961139157992825e-01 6.176296336305247223e+02 1.602354195412308968e+02 2.690569809800439360e-01
6.433828669398926614e-01 7.242313426787960680e+02 1.915253609759640767e+02 3.170477117266218281e-01
7.196696199639860403e-01 8.349135570649743840e+02 2.293486718387632664e+02 3.653858813588735654e-01
7.959563729880793082e-01 9.499634770027784043e+02 2.742302438927791854e+02 4.137240509911253028e-01
8.722431260121726870e-01 1.069664234529147507e+03 3.267168031984027721e+02 4.620622206233770957e-01
9.485298790362660659e-01 1.194298915719788511e+03 3.873961774633760342e+02 5.104003902556288885e-01
1.024816632060359556e+00 1.324153959843482653e+03 4.568990999583774624e+02 5.587385598878806814e-01
1.101103385084452713e+00 1.459521686916562430e+03 5.359013300993514122e+02 6.070767295201322522e-01
1.177390138108546092e+00 1.600748226576329898e+03 6.294221702771521905e+02 7.136009645848891969e-01
1.253676891132639470e+00 1.748647209409262814e+03 7.450430602921791206e+02 8.443715601175981744e-01
1.329963644156732627e+00 1.904251379649455430e+03 8.713196346440337265e+02 7.815396661259844668e-01
1.406250397180826006e+00 2.066970959680249052e+03 9.920743740117395646e+02 7.055398403134945928e-01
1.482537150204919385e+00 2.236025080679761231e+03 1.104726323612386068e+03 6.295400145010047188e-01
1.558823903229012764e+00 2.410631674709691652e+03 1.207848194119365644e+03 5.535401886885149558e-01
1.635110656253106143e+00 2.590020081776145162e+03 1.300196326109781012e+03 4.775403628760250818e-01
1.711397409277199522e+00 2.773438034396250259e+03 1.380710482520350297e+03 4.015405370635352078e-01
1.787684162301292901e+00 2.960157307768078681e+03 1.448510466232667568e+03 3.255407112510453893e-01
1.863970915325386279e+00 3.149478200598481180e+03 1.502890223679547944e+03 2.495408854385555708e-01
1.940257668349479658e+00 3.340732996050606744e+03 1.543310003758516586e+03 1.735410596260656968e-01
2.016544421373573037e+00 3.533288537582784556e+03 1.569387059348930052e+03 9.754123381357582279e-02
2.092831174397666416e+00 3.726624129638107206e+03 1.585146012729338054e+03 6.553443726199961739e-02
