# density  energy_density  pressure   sound_speed_squared  [All in nuclear units]
2.720000000000000022e-14 2.529924618736292620e-11 1.061056609100270887e-19 3.766610435412189122e-08
1.269999999999999890e-13 1.181251617980081254e-10 4.870113551826584858e-18 6.497781477172163475e-08
6.929999999999999754e-13 6.445728594625782745e-10 1.018299070687946017e-16 3.033770597342807186e-07
6.295000000000000137e-12 5.855111460395753757e-09 5.487150723824490656e-15 1.763710043904196507e-06
1.581000000000000150e-11 1.470523320212576141e-08 2.904239460150760759e-14 3.559434472327477622e-06
3.971999999999999958e-11 3.694456170323160790e-08 1.439340266754906811e-13 6.772854871245677111e-06
9.975999999999999982e-11 9.278976412613005154e-08 6.812143616221268841e-13 1.246890511177539320e-05
2.505999999999999928e-10 2.330928829758143313e-07 3.107749196951638608e-12 2.212095130576091967e-05
6.294000000000000186e-10 5.854398883216247602e-07 1.363250409771533549e-11 3.761981047239428883e-05
1.581000000000000021e-09 1.470619631082054101e-06 5.726014178088476303e-11 6.095350986710739404e-05
3.971999999999999932e-09 3.694861084648016046e-06 2.210019573374265380e-10 8.628023653304385055e-05
5.000000000000000105e-09 4.651201787816927976e-06 3.071485916280120014e-10 9.387863480799757518e-05
9.975999999999999465e-09 9.280587964640925786e-06 8.385361004129998845e-10 1.356922228656245837e-04
1.989999999999999952e-08 1.851419242998081003e-05 2.287763168863418088e-09 1.782101978513718314e-04
3.972999999999999908e-08 3.696699295748789187e-05 6.061583099087538954e-09 2.308134738384234820e-04
7.925999999999999637e-08 7.375765469301719828e-05 1.575347858094044765e-08 2.960532096713864875e-04
1.580999999999999930e-07 1.471491184379128891e-04 3.910429618672550719e-08 3.402859755131850544e-04
1.991000000000000027e-07 1.853209783927820692e-04 5.252045687899177454e-08 3.626488188833278743e-04
3.155999999999999938e-07 2.938002528823880299e-04 9.730770378831954314e-08 4.630767356912104081e-04
5.000999999999999849e-07 4.656344063839075714e-04 1.837494945860225819e-07 5.430301232045120323e-04
6.295999999999999732e-07 5.862651417037388971e-04 2.503103884558263872e-07 5.605192962670089638e-04
9.666999999999999941e-07 9.003386739730535665e-04 4.324450868778576936e-07 5.993081670211623108e-04
1.531999999999999901e-06 1.427170885631398036e-03 7.780217275717420968e-07 7.125938556504039095e-04
2.506999999999999883e-06 2.336134972129507662e-03 1.471005394641589826e-06 8.121876172121876309e-04
3.974000000000000407e-06 3.704315759716615697e-03 2.695705763844323844e-06 9.780674166779417152e-04
4.830000000000000343e-06 4.502887798316278223e-03 3.503988717694660908e-06 1.046253037768318664e-03
6.080999999999999885e-06 5.670217999231269741e-03 4.731126407333307547e-06 1.056224360839501646e-03
7.930000000000000308e-06 7.396012414119570652e-03 6.599662989063778187e-06 1.109203753630785610e-03
9.982000000000000313e-06 9.311815711689977113e-03 8.879881089227186733e-06 1.271216815433141075e-03
1.256999999999999993e-05 1.172874412604260098e-02 1.207676739913533738e-05 1.374195438212825332e-03
1.521999999999999997e-05 1.420427250933824909e-02 1.547541302213394990e-05 1.371610497379100249e-03
1.991000000000000080e-05 1.858690797761085312e-02 2.160710455847765458e-05 1.426578142835871997e-03
2.506999999999999883e-05 2.341050104039446925e-02 2.908031724375689851e-05 1.672007475975408053e-03
2.790999999999999875e-05 2.606604784714952258e-02 3.357009132255487721e-05 1.709425557744154774e-03
3.806999999999999973e-05 3.556967988784798945e-02 4.986781576435106434e-05 1.720407281314112165e-03
5.063000000000000145e-05 4.732434580343149871e-02 7.073400252905581275e-05 1.829889149838781265e-03
6.592000000000000583e-05 6.164112392498975052e-02 9.765037643900635188e-05 1.930242980462695823e-03
8.433000000000000066e-05 7.888776783401378612e-02 1.317235490470395893e-04 2.021055815200022837e-03
1.062000000000000064e-04 9.938561165478684845e-02 1.740088341640037047e-04 2.104789529260958983e-03
1.321000000000000126e-04 1.236720406455826121e-01 2.260189757651373944e-04 2.178291718403657477e-03
1.623999999999999901e-04 1.520974545104751274e-01 2.888169908545388338e-04 2.240170365918073281e-03
1.689999999999999879e-04 1.582907717069566844e-01 3.027354772999506964e-04 2.254509350360745651e-03
1.758999999999999930e-04 1.647661861691531171e-01 3.173785841705756782e-04 2.268169273277113179e-03
1.830000000000000029e-04 1.714298948183871907e-01 3.325196584577469103e-04 2.276170334580628063e-03
1.901999999999999882e-04 1.781880600978280049e-01 3.479577791899843742e-04 2.292561569242367037e-03
1.977000000000000079e-04 1.852284385240466902e-01 3.641242634600037713e-04 2.299943765467868384e-03
2.054000000000000053e-04 1.924572004474696396e-01 3.808304060475003897e-04 2.322187632288155723e-03
2.079000000000000119e-04 1.948043378760714872e-01 3.864137987380476553e-04 2.435429768083530178e-03
2.081999999999999921e-04 1.950859988578999005e-01 3.870314100985603909e-04 1.950065624557156818e-03
2.090999999999999868e-04 1.959309855029948977e-01 3.881261957135444685e-04 6.411875526909013856e-04
2.159999999999999919e-04 2.024093317906446865e-01 3.940874488768042125e-04 1.199166870571831411e-03
2.231000000000000019e-04 2.090756740932291913e-01 4.013938420547467825e-04 9.928616047829054436e-04
2.311000000000000066e-04 2.165873044433437034e-01 4.085241694843774404e-04 9.056166966301716637e-04
2.401000000000000085e-04 2.250381721984245909e-01 4.159700687886608468e-04 8.565463878902855599e-04
2.500000000000000052e-04 2.343344406330727658e-01 4.237602369176299592e-04 8.194318812157330018e-04
2.642999999999999733e-04 2.477629128650125634e-01 4.345596643180389446e-04 7.890063723638815647e-04
3.052999999999999941e-04 2.862671839140227270e-01 4.644058706720978241e-04 7.612775562167708662e-04
3.533000000000000224e-04 3.313503829113090826e-01 4.987577676308450197e-04 7.626578558207241024e-04
4.075999999999999871e-04 3.823564017794535141e-01 5.381334366106255759e-04 7.813048116943254948e-04
4.679999999999999915e-04 4.390986251953180042e-01 5.832692638200615834e-04 8.096035963157804938e-04
5.341000000000000261e-04 5.012024644415256081e-01 6.346556894078133086e-04 8.452514814113673558e-04
6.059000000000000366e-04 5.686690698184251325e-01 6.930641302632923034e-04 8.862253587289389486e-04
7.661000000000000275e-04 7.192254882508629654e-01 8.328184776562496576e-04 9.702780530519144065e-04
1.262000000000000101e-03 1.185459127778160093e+00 1.338484980802662205e-03 1.198863597978450275e-03
1.894999999999999983e-03 1.780909071169781921e+00 2.123481960401060308e-03 1.437771491635827115e-03
2.673000000000000029e-03 2.513147344746868850e+00 3.261860252001994032e-03 1.671524566936786766e-03
3.605999999999999830e-03 3.391736073717691369e+00 4.828136641022434151e-03 1.893900408978071038e-03
4.709999999999999777e-03 4.431905410739045870e+00 6.903512974832482635e-03 2.096551352830673849e-03
7.496000000000000059e-03 7.058993649504918366e+00 1.289742191321638018e-02 2.466596387205546859e-03
1.119999999999999989e-02 1.055540362104863661e+01 2.212077014004794340e-02 2.809304433764861584e-03
1.600000000000000033e-02 1.509117352747679952e+01 3.559566804390756900e-02 3.132325055719984222e-03
2.206999999999999934e-02 2.083310616724802244e+01 5.457322122755020599e-02 3.477840948757840792e-03
2.947999999999999926e-02 2.785007348564149154e+01 8.049103664263126956e-02 3.909302116317729670e-03
4.268000000000000266e-02 4.036707211535221518e+01 1.353887601042819133e-01 4.862066536253286525e-03
6.219999999999999835e-02 5.891246509830522626e+01 2.419691225623893105e-01 6.630786177272363080e-03
7.316999999999999893e-02 6.935151695866235855e+01 3.161896974764099033e-01 7.588671314871411888e-03
7.595999999999999974e-02 7.200836722020332559e+01 3.371250777904805096e-01 8.170805199905812125e-03
7.685877551020407761e-02 7.286441682367329520e+01 3.442101603296520151e-01 8.382157961443681068e-03
7.775755102040816935e-02 7.372055035804723389e+01 3.514802198311572368e-01 8.601303694849040532e-03
7.865632653061224722e-02 7.457676902975252631e+01 3.589419305817785344e-01 8.828137655942777315e-03
7.955510204081632508e-02 7.543307409342082792e+01 3.666018803906953005e-01 9.062555100545802503e-03
8.045387755102040295e-02 7.628946684927785782e+01 3.744665706307568898e-01 9.304451284479011569e-03
8.135265306122449469e-02 7.714594864064943636e+01 3.825424162799727634e-01 9.553721463563303457e-03
8.225142857142857256e-02 7.800252085157859483e+01 3.908357459629455688e-01 9.810260893619570169e-03
8.315020408163265042e-02 7.885918490454751861e+01 3.993528019919963534e-01 1.007396483046871932e-02
8.404897959183672829e-02 7.971594225829777258e+01 4.080997404077445490e-01 1.034472852993164119e-02
8.494775510204082003e-02 8.057279440574512819e+01 4.170826310189273967e-01 1.062244724782924858e-02
8.584653061224489790e-02 8.142974287198198624e+01 4.263074574412550888e-01 1.090701623998242137e-02
8.674530612244897576e-02 8.228678921236469535e+01 4.357801171351177172e-01 1.119833076221206716e-02
8.764408163265305363e-02 8.314393501068049375e+01 4.455064214419670598e-01 1.149628607033908838e-02
8.854285714285714537e-02 8.400118187738935660e+01 4.554920956192161641e-01 1.180077742018438396e-02
8.944163265306122323e-02 8.485853144793807701e+01 4.657427788735059027e-01 1.211170006756884070e-02
9.034040816326530110e-02 8.571598538114274390e+01 4.762640243922042216e-01 1.242894926831336795e-02
9.123918367346939284e-02 8.657354535763498404e+01 4.870612993730088491e-01 1.275242027823886119e-02
9.213795918367347071e-02 8.743121307837066070e+01 4.981399850515373373e-01 1.308200835316621763e-02
9.303673469387754857e-02 8.828899026319652421e+01 5.095053767267989642e-01 1.341760874891633620e-02
9.393551020408162644e-02 8.914687864947244123e+01 5.211626837844461901e-01 1.375911672131011933e-02
9.483428571428570431e-02 9.000487999074674406e+01 5.331170297177170170e-01 1.410642752616846074e-02
9.573306122448979605e-02 9.086299605548214231e+01 5.453734521459842055e-01 1.445943641931226806e-02
9.663183673469387391e-02 9.172122862582922664e+01 5.579369028308345246e-01 1.481803865656242634e-02
9.753061224489795178e-02 9.257957949644615780e+01 5.708122476896104747e-01 1.518212949373984148e-02
9.842938775510204352e-02 9.343805047336168457e+01 5.840042668063480935e-01 1.555160418666541589e-02
9.932816326530612139e-02 9.429664337287987053e+01 5.975176544400553347e-01 1.592635799116003809e-02
1.002269387755101993e-01 9.515536002052465392e+01 6.113570190302800578e-01 1.630628616304461570e-02
1.011257142857142910e-01 9.601420225002225095e+01 6.255268831999184487e-01 1.669128395814005114e-02
1.020244897959183689e-01 9.687317190231924258e+01 6.400316837552231242e-01 1.708124663226722253e-02
1.029232653061224467e-01 9.773227082463652948e+01 6.548757716829759490e-01 1.747606944124704964e-02
1.038220408163265246e-01 9.859150086955472148e+01 6.700634121447895941e-01 1.787564764090041752e-02
1.047208163265306025e-01 9.945086389413216921e+01 6.855987844685108579e-01 1.827987648704823553e-02
1.056195918367346942e-01 1.003103617590532650e+02 7.014859821367017689e-01 1.868865123551140262e-02
1.065183673469387721e-01 1.011699963278043839e+02 7.177290127721749347e-01 1.910186714211080036e-02
1.074171428571428499e-01 1.020297694658794967e+02 7.343317981205701450e-01 1.951941946266734854e-02
1.083159183673469417e-01 1.028896830400102118e+02 7.512981740299529143e-01 1.994120345300193220e-02
1.092146938775510195e-01 1.037497389174227322e+02 7.686318904274259678e-01 2.036711436893545724e-02
1.101134693877550974e-01 1.046099389651178058e+02 7.863366112927486773e-01 2.079704746628881218e-02
1.110122448979591891e-01 1.054702850491752599e+02 8.044159146289534545e-01 2.123089800088290985e-02
1.119110204081632531e-01 1.063307790340794412e+02 8.228732924299593243e-01 2.166856122853863531e-02
1.128097959183673449e-01 1.071914227820674483e+02 8.417121506451862301e-01 2.210993240507690138e-02
1.137085714285714227e-01 1.080522181524965646e+02 8.609358091411619673e-01 2.255490678631858967e-02
1.146073469387755006e-01 1.089131670012320825e+02 8.805475016601398419e-01 2.300337962808461645e-02
1.155061224489795924e-01 1.097742711800542565e+02 9.005503757757223893e-01 2.345524618619587373e-02
1.164048979591836702e-01 1.106355325360823656e+02 9.209474928455048115e-01 2.391040171647324658e-02
1.173036734693877481e-01 1.114969529112171074e+02 9.417418279607510101e-01 2.436874147473765129e-02
1.182024489795918398e-01 1.123585341415993923e+02 9.629362698931089870e-01 2.483016071680999026e-02
1.191012244897959177e-01 1.132202780570851672e+02 9.845336210383837106e-01 2.529455469851113469e-02
1.199999999999999956e-01 1.140821864807353876e+02 1.006536597357385210e+00 2.576181867566201128e-02
1.212088425451307155e-01 1.152417061041371795e+02 1.036775038935039639e+00 2.639495097295484899e-02
1.224176850902614494e-01 1.164015310130334484e+02 1.067759443152850540e+00 2.703442495842810905e-02
1.236265276353921694e-01 1.175616655977856340e+02 1.099497670644502545e+00 2.768023170420570375e-02
1.248353701805229032e-01 1.187221142397815328e+02 1.131997586952611767e+00 2.833236429658773925e-02
1.260442127256536371e-01 1.198828813117548577e+02 1.165267065011057923e+00 2.899081783920288979e-02
1.272530552707843432e-01 1.210439711781180705e+02 1.199313987634525791e+00 2.965558945583226733e-02
1.284618978159150771e-01 1.222053881953042520e+02 1.234146250015084600e+00 3.032667829292009024e-02
1.296707403610458109e-01 1.233671367121209954e+02 1.269771762225636147e+00 3.100408552177895058e-02
1.308795829061765170e-01 1.245292210701142324e+02 1.306198451730097743e+00 3.168781434050279427e-02
1.320884254513072509e-01 1.256916456039412680e+02 1.343434265900169011e+00 3.237786997558221580e-02
1.332972679964379847e-01 1.268544146417537632e+02 1.381487174538579943e+00 3.307425968331321325e-02
1.345061105415686908e-01 1.280175325055899691e+02 1.420365172408676990e+00 3.377699275080324470e-02
1.357149530866994247e-01 1.291810035117742927e+02 1.460076281770229745e+00 3.448608049685460142e-02
1.369237956318301586e-01 1.303448319713273804e+02 1.500628554921389135e+00 3.520153627252679135e-02
1.381326381769608924e-01 1.315090221903821543e+02 1.542030076746685907e+00 3.592337546146784355e-02
1.393414807220915985e-01 1.326735784706085894e+02 1.584288967270973680e+00 3.665161548000431951e-02
1.405503232672223324e-01 1.338385051096460643e+02 1.627413384219246417e+00 3.738627577699680377e-02
1.417591658123530662e-01 1.350038064015424482e+02 1.671411525582234825e+00 3.812737783346476644e-02
1.429680083574838001e-01 1.361694866372002366e+02 1.716291632187728178e+00 3.887494516198534977e-02
1.441768509026145062e-01 1.373355501048294229e+02 1.762061990277537848e+00 3.962900330586972136e-02
1.453856934477452401e-01 1.385020010904069636e+02 1.808730934090047038e+00 4.038957983812005437e-02
1.465945359928759739e-01 1.396688438781416437e+02 1.856306848448269431e+00 4.115670436017021538e-02
1.478033785380066800e-01 1.408360827509468152e+02 1.904798171353375258e+00 4.193040850041266504e-02
1.490122210831374139e-01 1.420037219909164605e+02 1.954213396583621254e+00 4.271072591251365985e-02
1.502210636282681477e-01 1.431717658798086745e+02 2.004561076298615685e+00 4.349769227351810846e-02
1.514299061733988538e-01 1.443402186995343186e+02 2.055849823648887131e+00 4.429134528174646923e-02
1.526387487185295877e-01 1.455090847326500807e+02 2.108088315390695744e+00 4.509172465448371692e-02
1.538475912636603216e-01 1.466783682628577026e+02 2.161285294506025245e+00 4.589887212546157197e-02
1.550564338087910277e-01 1.478480735755073283e+02 2.215449572827723923e+00 4.671283144213506100e-02
1.562652763539217615e-01 1.490182049581058834e+02 2.270590033669738883e+00 4.753364836275261740e-02
1.574741188990524954e-01 1.501887667008306835e+02 2.326715634462381388e+00 4.836137065322029804e-02
1.586829614441832292e-01 1.513597630970461125e+02 2.383835409392595750e+00 4.919604808375981769e-02
1.598918039893139631e-01 1.525311984438260993e+02 2.441958472049165607e+00 5.003773242535947130e-02
1.611006465344446692e-01 1.537030770424807429e+02 2.501094018072814062e+00 5.088647744601769440e-02
1.623094890795754031e-01 1.548754031990853264e+02 2.561251327811153278e+00 5.174233890677770731e-02
1.635183316247061369e-01 1.560481812250158953e+02 2.622439768978409802e+00 5.260537455755223690e-02
1.647271741698368430e-01 1.572214154374862574e+02 2.684668799319903876e+00 5.347564413273707407e-02
1.659360167149675769e-01 1.583951101600908942e+02 2.747947969281209435e+00 5.435320934661153763e-02
1.671448592600983107e-01 1.595692697233496631e+02 2.812286924681935751e+00 5.523813388852417960e-02
1.683537018052290168e-01 1.607438984652578711e+02 2.877695409394089410e+00 5.613048341786158052e-02
1.695625443503597507e-01 1.619190007318381390e+02 2.944183268024954447e+00 5.703032555879839621e-02
1.707713868954904846e-01 1.630945808776965009e+02 3.011760448604410279e+00 5.793772989482563751e-02
1.719802294406211907e-01 1.642706432665821694e+02 3.080437005276654094e+00 5.885276796305550367e-02
1.731890719857519245e-01 1.654471922719498593e+02 3.150223100996250025e+00 5.977551324829943197e-02
1.743979145308826584e-01 1.666242322775251523e+02 3.221129010228422018e+00 6.070604117691687923e-02
1.756067570760133922e-01 1.678017676778732721e+02 3.293165121653552241e+00 6.164442911043178236e-02
1.768155996211441261e-01 1.689798028789711850e+02 3.366341940875787309e+00 6.259075633891336699e-02
1.780244421662748322e-01 1.701583422987816903e+02 3.440670093135686614e+00 6.354510407411860518e-02
1.792332847114055661e-01 1.713373903678309773e+02 3.516160326026843475e+00 6.450755544239246408e-02
2.572081156356625931e-01 2.484299511278464934e+02 8.893624751208964341e+00 7.496330645274026927e-02
3.351829465599196478e-01 3.273091522299230860e+02 1.522082829701726148e+01 8.541905746308806058e-02
4.131577774841766471e-01 4.085058344756470206e+02 3.099956307431819269e+01 2.983932068523069692e-01
4.911326084084336463e-01 4.942601860481991025e+02 6.726288627872872894e+01 5.359001296177885454e-01
5.691074393326907011e-01 5.874520700509397102e+02 1.291168670995187426e+02 7.734070523832701216e-01
6.470822702569477558e-01 6.908632264200766713e+02 2.140756345690039666e+02 8.618777511932370627e-01
7.250571011812046995e-01 8.054381957906073239e+02 3.036010234568705641e+02 7.132212935166820644e-01
8.030319321054617543e-01 9.290685445242486367e+02 3.820718327399198984e+02 5.645648358401269551e-01
8.810067630297188090e-01 1.059594235872970330e+03 4.457155710311744770e+02 4.159083781635717347e-01
9.589815939539758638e-01 1.195162329659245643e+03 4.989872937407542963e+02 3.711911612879887912e-01
1.036956424878232808e+00 1.335037086775389525e+03 5.539165225357299960e+02 4.134451471160877634e-01
1.114931255802489973e+00 1.479326158044058730e+03 6.166797510838239305e+02 4.556991329441868466e-01
1.192906086726746917e+00 1.628285474717335546e+03 6.877723931668283512e+02 4.979531187722857632e-01
1.270880917651003861e+00 1.782170888346100583e+03 7.677223015873017857e+02 5.402071046003846799e-01
1.348855748575261027e+00 1.941240213349150963e+03 8.570908995365812189e+02 5.824610904284838186e-01
1.426830579499517970e+00 2.105754866565049269e+03 9.564745013950675911e+02 6.247150762565827353e-01
1.504805410423774914e+00 2.275981224024892072e+03 1.066505798074211270e+03 6.669690620846817630e-01
1.582780241348032080e+00 2.452191776594297608e+03 1.187855491165885269e+03 7.092230479127807907e-01
1.660755072272289024e+00 2.634666141283908473e+03 1.321234066251407285e+03 7.514770337408797074e-01
1.738729903196546189e+00 2.823691968618277315e+03 1.467393699895944337e+03 7.937310195689788461e-01
1.816704734120803133e+00 3.019565775372702774e+03 1.627130297803644908e+03 8.359850053970777628e-01
1.894679565045060077e+00 3.222576083894838121e+03 1.795771593593248554e+03 8.258093328192581684e-01
1.972654395969317243e+00 3.432598824723025245e+03 1.966575123603774045e+03 8.014986380247162145e-01
2.050629226893574408e+00 3.649380848700692241e+03 2.137612067128657600e+03 7.771879432301742607e-01
