# density  energy_density  pressure   sound_speed_squared  [All in nuclear units]
2.720000000000000022e-14 2.529924618736292620e-11 1.061056609100270887e-19 3.766610435412189122e-08
1.269999999999999890e-13 1.181251617980081254e-10 4.870113551826584858e-18 6.497781477172163475e-08
6.929999999999999754e-13 6.445728594625782745e-10 1.018299070687946017e-16 3.033770597342807186e-07
6.295000000000000137e-12 5.855111460395753757e-09 5.487150723824490656e-15 1.763710043904196507e-06
1.581000000000000150e-11 1.470523320212576141e-08 2.904239460150760759e-14 3.559434472327477622e-06
3.971999999999999958e-11 3.694456170323160790e-08 1.439340266754906811e-13 6.772854871245677111e-06
9.975999999999999982e-11 9.278976412613005154e-08 6.812143616221268841e-13 1.246890511177539320e-05
2.505999999999999928e-10 2.330928829758143313e-07 3.107749196951638608e-12 2.212095130576091967e-05
6.294000000000000186e-10 5.854398883216247602e-07 1.363250409771533549e-11 3.761981047239428883e-05
1.581000000000000021e-09 1.470619631082054101e-06 5.726014178088476303e-11 6.095350986710739404e-05
3.971999999999999932e-09 3.694861084648016046e-06 2.210019573374265380e-10 8.628023653304385055e-05
5.000000000000000105e-09 4.651201787816927976e-06 3.071485916280120014e-10 9.387863480799757518e-05
9.975999999999999465e-09 9.280587964640925786e-06 8.385361004129998845e-10 1.356922228656245837e-04
1.989999999999999952e-08 1.851419242998081003e-05 2.287763168863418088e-09 1.782101978513718314e-04
3.972999999999999908e-08 3.696699295748789187e-05 6.061583099087538954e-09 2.308134738384234820e-04
7.925999999999999637e-08 7.375765469301719828e-05 1.575347858094044765e-08 2.960532096713864875e-04
1.580999999999999930e-07 1.471491184379128891e-04 3.910429618672550719e-08 3.402859755131850544e-04
1.991000000000000027e-07 1.853209783927820692e-04 5.252045687899177454e-08 3.626488188833278743e-04
3.155999999999999938e-07 2.938002528823880299e-04 9.730770378831954314e-08 4.630767356912104081e-04
5.000999999999999849e-07 4.656344063839075714e-04 1.837494945860225819e-07 5.430301232045120323e-04
6.295999999999999732e-07 5.862651417037388971e-04 2.503103884558263872e-07 5.605192962670089638e-04
9.666999999999999941e-07 9.003386739730535665e-04 4.324450868778576936e-07 5.993081670211623108e-04
1.531999999999999901e-06 1.427170885631398036e-03 7.780217275717420968e-07 7.125938556504039095e-04
2.506999999999999883e-06 2.336134972129507662e-03 1.471005394641589826e-06 8.121876172121876309e-04
3.974000000000000407e-06 3.704315759716615697e-03 2.695705763844323844e-06 9.780674166779417152e-04
4.830000000000000343e-06 4.502887798316278223e-03 3.503988717694660908e-06 1.046253037768318664e-03
6.080999999999999885e-06 5.670217999231269741e-03 4.731126407333307547e-06 1.056224360839501646e-03
7.930000000000000308e-06 7.396012414119570652e-03 6.599662989063778187e-06 1.109203753630785610e-03
9.982000000000000313e-06 9.311815711689977113e-03 8.879881089227186733e-06 1.271216815433141075e-03
1.256999999999999993e-05 1.172874412604260098e-02 1.207676739913533738e-05 1.374195438212825332e-03
1.521999999999999997e-05 1.420427250933824909e-02 1.547541302213394990e-05 1.371610497379100249e-03
1.991000000000000080e-05 1.858690797761085312e-02 2.160710455847765458e-05 1.426578142835871997e-03
2.506999999999999883e-05 2.341050104039446925e-02 2.908031724375689851e-05 1.672007475975408053e-03
2.790999999999999875e-05 2.606604784714952258e-02 3.357009132255487721e-05 1.709425557744154774e-03
3.806999999999999973e-05 3.556967988784798945e-02 4.986781576435106434e-05 1.720407281314112165e-03
5.063000000000000145e-05 4.732434580343149871e-02 7.073400252905581275e-05 1.829889149838781265e-03
6.592000000000000583e-05 6.164112392498975052e-02 9.765037643900635188e-05 1.930242980462695823e-03
8.433000000000000066e-05 7.888776783401378612e-02 1.317235490470395893e-04 2.021055815200022837e-03
1.062000000000000064e-04 9.938561165478684845e-02 1.740088341640037047e-04 2.104789529260958983e-03
1.321000000000000126e-04 1.236720406455826121e-01 2.260189757651373944e-04 2.178291718403657477e-03
1.623999999999999901e-04 1.520974545104751274e-01 2.888169908545388338e-04 2.240170365918073281e-03
1.689999999999999879e-04 1.582907717069566844e-01 3.027354772999506964e-04 2.254509350360745651e-03
1.758999999999999930e-04 1.647661861691531171e-01 3.173785841705756782e-04 2.268169273277113179e-03
1.830000000000000029e-04 1.714298948183871907e-01 3.325196584577469103e-04 2.276170334580628063e-03
1.901999999999999882e-04 1.781880600978280049e-01 3.479577791899843742e-04 2.292561569242367037e-03
1.977000000000000079e-04 1.852284385240466902e-01 3.641242634600037713e-04 2.299943765467868384e-03
2.054000000000000053e-04 1.924572004474696396e-01 3.808304060475003897e-04 2.322187632288155723e-03
2.079000000000000119e-04 1.948043378760714872e-01 3.864137987380476553e-04 2.435429768083530178e-03
2.081999999999999921e-04 1.950859988578999005e-01 3.870314100985603909e-04 1.950065624557156818e-03
2.090999999999999868e-04 1.959309855029948977e-01 3.881261957135444685e-04 6.411875526909013856e-04
2.159999999999999919e-04 2.024093317906446865e-01 3.940874488768042125e-04 1.199166870571831411e-03
2.231000000000000019e-04 2.090756740932291913e-01 4.013938420547467825e-04 9.928616047829054436e-04
2.311000000000000066e-04 2.165873044433437034e-01 4.085241694843774404e-04 9.056166966301716637e-04
2.401000000000000085e-04 2.250381721984245909e-01 4.159700687886608468e-04 8.565463878902855599e-04
2.500000000000000052e-04 2.343344406330727658e-01 4.237602369176299592e-04 8.194318812157330018e-04
2.642999999999999733e-04 2.477629128650125634e-01 4.345596643180389446e-04 7.890063723638815647e-04
3.052999999999999941e-04 2.862671839140227270e-01 4.644058706720978241e-04 7.612775562167708662e-04
3.533000000000000224e-04 3.313503829113090826e-01 4.987577676308450197e-04 7.626578558207241024e-04
4.075999999999999871e-04 3.823564017794535141e-01 5.381334366106255759e-04 7.813048116943254948e-04
4.679999999999999915e-04 4.390986251953180042e-01 5.832692638200615834e-04 8.096035963157804938e-04
5.341000000000000261e-04 5.012024644415256081e-01 6.346556894078133086e-04 8.452514814113673558e-04
6.059000000000000366e-04 5.686690698184251325e-01 6.930641302632923034e-04 8.862253587289389486e-04
7.661000000000000275e-04 7.192254882508629654e-01 8.328184776562496576e-04 9.702780530519144065e-04
1.262000000000000101e-03 1.185459127778160093e+00 1.338484980802662205e-03 1.198863597978450275e-03
1.894999999999999983e-03 1.780909071169781921e+00 2.123481960401060308e-03 1.437771491635827115e-03
2.673000000000000029e-03 2.513147344746868850e+00 3.261860252001994032e-03 1.671524566936786766e-03
3.605999999999999830e-03 3.391736073717691369e+00 4.828136641022434151e-03 1.893900408978071038e-03
4.709999999999999777e-03 4.431905410739045870e+00 6.903512974832482635e-03 2.096551352830673849e-03
7.496000000000000059e-03 7.058993649504918366e+00 1.289742191321638018e-02 2.466596387205546859e-03
1.119999999999999989e-02 1.055540362104863661e+01 2.212077014004794340e-02 2.809304433764861584e-03
1.600000000000000033e-02 1.509117352747679952e+01 3.559566804390756900e-02 3.132325055719984222e-03
2.206999999999999934e-02 2.083310616724802244e+01 5.457322122755020599e-02 3.477840948757840792e-03
2.947999999999999926e-02 2.785007348564149154e+01 8.049103664263126956e-02 3.909302116317729670e-03
4.268000000000000266e-02 4.036707211535221518e+01 1.353887601042819133e-01 4.862066536253286525e-03
6.219999999999999835e-02 5.891246509830522626e+01 2.419691225623893105e-01 6.630786177272363080e-03
7.316999999999999893e-02 6.935151695866235855e+01 3.161896974764099033e-01 7.588671314871411888e-03
7.595999999999999974e-02 7.200836722020332559e+01 3.371250777904805096e-01 8.170805199905812125e-03
7.685877551020407761e-02 7.286441686427417608e+01 3.442171086366714872e-01 8.398389792494206571e-03
7.775755102040816935e-02 7.372055062718948193e+01 3.515124758057377452e-01 8.644186797638019754e-03
7.865632653061224722e-02 7.457676997524458784e+01 3.590265083965690773e-01 8.907454846902924939e-03
7.955510204081632508e-02 7.543307651282034954e+01 3.667739076197569226e-01 9.187452571854614475e-03
8.045387755102040295e-02 7.628947197060821850e+01 3.747687467408912787e-01 9.483438604058770302e-03
8.135265306122449469e-02 7.714595819436124202e+01 3.830244710217773907e-01 9.794671575081077830e-03
8.225142857142857256e-02 7.800253713414103629e+01 3.915538976556077189e-01 1.012041011648721553e-02
8.315020408163265042e-02 7.885921083403508192e+01 4.003692156925424128e-01 1.045991285984286881e-02
8.404897959183672829e-02 7.971598142231646023e+01 4.094819859525299366e-01 1.081243843671372135e-02
8.494775510204082003e-02 8.057285110202447243e+01 4.189031409225627556e-01 1.117724547866546722e-02
8.584653061224489790e-02 8.142982214194226742e+01 4.286429846358915663e-01 1.155359261726376929e-02
8.674530612244897576e-02 8.228689686795117098e+01 4.387111925310360205e-01 1.194073848407432685e-02
8.764408163265305363e-02 8.314407765474156520e+01 4.491168112887140018e-01 1.233794171066282183e-02
8.854285714285714537e-02 8.400136691786238430e+01 4.598682586450878462e-01 1.274446092859494138e-02
8.944163265306122323e-02 8.485876710609109352e+01 4.709733231799730913e-01 1.315955476943635530e-02
9.034040816326530110e-02 8.571628069410796513e+01 4.824391640788973645e-01 1.358248186475275766e-02
9.123918367346939284e-02 8.657391017545998579e+01 4.942723108681111310e-01 1.401250084610983389e-02
9.213795918367347071e-02 8.743165805579862138e+01 5.064786631218650692e-01 1.444887034507326071e-02
9.303673469387754857e-02 8.828952684637904724e+01 5.190634901414616920e-01 1.489084899320872353e-02
9.393551020408162644e-02 8.914751905780664742e+01 5.320314306057681852e-01 1.533769542208191124e-02
9.483428571428570431e-02 9.000563719402029506e+01 5.453864921930521303e-01 1.578866826325849709e-02
9.573306122448979605e-02 9.086388374649878585e+01 5.591320511741612043e-01 1.624302614830418559e-02
9.663183673469387391e-02 9.172226118868240974e+01 5.732708519772182765e-01 1.670002770878463785e-02
9.753061224489795178e-02 9.258077197059635921e+01 5.878050067241498144e-01 1.715893157626554796e-02
9.842938775510204352e-02 9.343941851366929541e+01 6.027359947394929085e-01 1.761899638231260654e-02
9.932816326530612139e-02 9.429820320573516312e+01 6.180646620320593421e-01 1.807948075849147296e-02
1.002269387755101993e-01 9.515712839621254204e+01 6.337912207501534834e-01 1.853964333636785866e-02
1.011257142857142910e-01 9.601619639145080498e+01 6.499152486111493543e-01 1.899874274750743691e-02
1.020244897959183689e-01 9.687540945023721406e+01 6.664356883063430326e-01 1.945603762347588445e-02
1.029232653061224467e-01 9.773476977945638566e+01 6.833508468821003490e-01 1.991078659583888494e-02
1.038220408163265246e-01 9.859427952989666721e+01 7.006583950984065501e-01 2.036224829616213941e-02
1.047208163265306025e-01 9.945394079219514083e+01 7.183553667660246278e-01 2.080968135601131419e-02
1.056195918367346942e-01 1.003137555929172038e+02 7.364381580635502855e-01 2.125234440695210336e-02
1.065183673469387721e-01 1.011737258907621424e+02 7.549025268357333340e-01 2.168949608055018713e-02
1.074171428571428499e-01 1.020338535728926388e+02 7.737435918745173558e-01 2.212039500837124223e-02
1.083159183673469417e-01 1.028941404513794424e+02 7.929558321843160895e-01 2.254429982198096621e-02
1.092146938775510195e-01 1.037545882597586342e+02 8.125330862331203718e-01 2.296046915294502888e-02
1.101134693877550974e-01 1.046151986496959978e+02 8.324685511910997482e-01 2.336816163282912084e-02
1.110122448979591891e-01 1.054759731877540645e+02 8.527547821584168242e-01 2.376663589319893272e-02
1.119110204081632531e-01 1.063369133522569570e+02 8.733836913840408167e-01 2.415515056562012736e-02
1.128097959183673449e-01 1.071980205302507727e+02 8.943465474774098256e-01 2.453296428165841273e-02
1.137085714285714227e-01 1.080592960145531549e+02 9.156339746148270953e-01 2.489933567287945515e-02
1.146073469387755006e-01 1.089207410008911978e+02 9.372359517425599140e-01 2.525352337084894871e-02
1.155061224489795924e-01 1.097823565851217893e+02 9.591418117786304487e-01 2.559478600713258056e-02
1.164048979591836702e-01 1.106441437605329270e+02 9.813402408153563128e-01 2.592238221329602049e-02
1.173036734693877481e-01 1.115061034152219435e+02 1.003819277324741854e+00 2.623557062090495218e-02
1.182024489795918398e-01 1.123682363295481110e+02 1.026566311368856566e+00 2.653360986152507664e-02
1.191012244897959177e-01 1.132305431736568693e+02 1.049568083817391306e+00 2.681575856672206368e-02
1.199999999999999956e-01 1.140930245050723215e+02 1.072810685574621337e+00 2.708127536806160390e-02
1.235312824613315902e-01 1.174834107471733091e+02 1.166220145230365768e+00 2.802099278478323297e-02
1.270625649226631848e-01 1.208765145890627508e+02 1.262953875659021952e+00 2.899655423986501057e-02
1.305938473839947933e-01 1.242723546508159842e+02 1.363139551468119048e+00 3.000807726781912557e-02
1.341251298453263741e-01 1.276709520066159769e+02 1.466905431760944456e+00 3.105553814194896706e-02
1.376564123066579826e-01 1.310723300002349845e+02 1.574379900739163229e+00 3.213877888870505378e-02
1.411876947679895633e-01 1.344765140679348860e+02 1.685691029131469509e+00 3.325751357452152307e-02
1.447189772293211718e-01 1.378835315683488432e+02 1.800966154016576226e+00 3.441133389569510370e-02
1.482502596906527526e-01 1.412934116189139786e+02 1.920331474701994834e+00 3.559971410523592866e-02
1.517815421519843611e-01 1.447061849384294305e+02 2.043911662423215425e+00 3.682201531193226435e-02
1.553128246133159418e-01 1.481218836953242430e+02 2.171829481736012202e+00 3.807748918750780004e-02
1.588441070746475503e-01 1.515405413612292591e+02 2.304205421584330171e+00 3.936528111709008265e-02
1.623753895359791311e-01 1.549621925694571303e+02 2.441157334134364643e+00 4.068443282721503906e-02
1.659066719973107396e-01 1.583868729780051012e+02 2.582800079570604979e+00 4.203388452403956227e-02
1.694379544586423203e-01 1.618146191367098652e+02 2.729245175150749159e+00 4.341247657308119207e-02
1.729692369199739288e-01 1.652454683581911468e+02 2.880600446912524593e+00 4.481895074957138042e-02
1.765005193813055095e-01 1.686794585922384329e+02 3.036969682516295066e+00 4.625195108721777415e-02
1.800318018426371180e-01 1.721166283033031732e+02 3.198452283793563389e+00 4.771002435121037000e-02
1.835630843039687266e-01 1.755570163507727273e+02 3.365142917652419019e+00 4.919162015980590996e-02
1.870943667653003073e-01 1.790006618717163462e+02 3.537131164067720324e+00 5.069509077737494041e-02
1.906256492266318880e-01 1.824476041658012093e+02 3.714501159956507870e+00 5.221869060052832662e-02
1.941569316879634965e-01 1.858978825820916825e+02 3.897331237808598026e+00 5.376057535786906566e-02
1.976882141492951050e-01 1.893515364074563081e+02 4.085693558009181103e+00 5.531880104304490176e-02
2.012194966106266858e-01 1.928086047563157877e+02 4.279653733855289133e+00 5.689132260013884251e-02
2.047507790719582665e-01 1.962691264614782369e+02 4.479270448332044019e+00 5.847599238002044314e-02
2.082820615332898750e-01 1.997331399658191344e+02 4.684595061778551894e+00 6.007055838611552456e-02
2.118133439946214835e-01 2.032006832145716260e+02 4.895671209638098098e+00 6.167266232813847782e-02
2.153446264559530643e-01 2.066717935480050414e+02 5.112534389553915481e+00 6.327983750268727225e-02
2.188759089172846450e-01 2.101465075942806777e+02 5.335211537141287153e+00 6.488950652023491028e-02
2.224071913786162535e-01 2.136248611622807516e+02 5.563720589840229103e+00 6.649897889898127856e-02
2.259384738399478620e-01 2.171068891342211487e+02 5.798070038331717413e+00 6.810544854727247632e-02
2.294697563012794428e-01 2.205926253578661260e+02 6.038258465085590387e+00 6.970599115786613176e-02
2.330010387626110235e-01 2.240821025381734444e+02 6.284274069701232257e+00 7.129756153924843298e-02
2.365323212239426320e-01 2.275753521282139786e+02 6.536094180804449927e+00 7.287699091151071673e-02
2.400636036852742405e-01 2.310724042192150023e+02 6.793684754377105506e+00 7.444098419699674007e-02
2.435948861466058213e-01 2.345732874295939041e+02 7.056999858521760594e+00 7.598611733906822374e-02
2.471261686079374298e-01 2.380780287928578218e+02 7.325981144803583867e+00 7.750883468593128267e-02
2.506574510692690105e-01 2.415866536442619008e+02 7.600557306468042285e+00 7.900544648055471408e-02
2.541887335306006190e-01 2.450991855061317040e+02 7.880643524007545864e+00 8.047212650231844178e-02
2.577200159919321720e-01 2.486156459717687426e+02 8.166140898745185339e+00 8.190490991121165965e-02
2.612512984532637805e-01 2.521360545878802384e+02 8.456935875321748952e+00 8.329969135115235235e-02
2.647825809145953890e-01 2.556604287354895746e+02 8.752899654215170244e+00 8.465222337538282071e-02
2.683138633759269975e-01 2.591887835093044146e+02 9.053887595692682311e+00 8.595811526392607704e-02
2.718451458372586060e-01 2.627211315955403848e+02 9.359738616897139707e+00 8.721283231078480469e-02
2.753764282985902145e-01 2.662574831482274362e+02 9.670274584103557558e+00 8.841169566694313808e-02
2.789077107599217675e-01 2.697978456640465765e+02 9.985299702552129730e+00 8.954988283429360374e-02
2.824389932212533760e-01 2.733422238557775472e+02 1.030459990667233683e+01 9.062242891507180098e-02
2.859702756825849290e-01 2.768906195244683204e+02 1.062794225396480208e+01 9.162422873363161580e-02
2.895015581439165375e-01 2.804430314304755143e+02 1.095507432629720768e+01 9.255003995301686048e-02
2.930328406052481460e-01 2.839994551635560924e+02 1.128572364290848995e+01 9.339448732743955983e-02
3.686852316133042984e-01 3.616043344209206225e+02 2.365479811635065488e+01 2.228664819049593349e-01
4.443376226213604507e-01 4.427583695990351771e+02 4.715871155033218542e+01 3.523384764824791238e-01
5.199900136294166586e-01 5.288757738686947505e+02 8.330987132195221534e+01 4.818104710599989682e-01
5.956424046374727554e-01 6.212056742000040686e+02 1.340862721210121151e+02 6.112824656375187571e-01
6.712947956455288523e-01 7.208641607488152658e+02 1.970294558259367363e+02 6.500805988127369428e-01
7.469471866535850602e-01 8.280868318288603405e+02 2.679581902142683134e+02 6.721128530352418196e-01
8.225995776616411570e-01 9.428686321454903236e+02 3.464169286471570786e+02 6.941451072577465853e-01
8.982519686696973649e-01 1.065221770646078767e+03 4.327471760639374452e+02 7.161773614802514620e-01
9.739043596777535727e-01 1.195186119461051476e+03 5.273114579395785313e+02 7.382096157027563388e-01
1.049556750685809670e+00 1.332824328555016109e+03 6.304920658260773507e+02 7.602418699252611045e-01
1.125209141693865877e+00 1.478218283738592390e+03 7.426903134174583556e+02 7.822741241477659813e-01
1.200861532701921863e+00 1.631466482835442775e+03 8.643261380142782855e+02 8.043063783702707470e-01
1.276513923709978293e+00 1.792682057983713548e+03 9.958379440682564336e+02 8.263386325927757348e-01
1.352166314718034279e+00 1.961984818126760501e+03 1.136324555462005492e+03 8.330757871991459895e-01
1.427818705726090265e+00 2.139331600615161278e+03 1.278110018051630504e+03 7.685318464285402218e-01
1.503471096734146695e+00 2.324038070825194154e+03 1.413895260112686401e+03 7.039879056579338990e-01
1.579123487742202681e+00 2.515394092578321306e+03 1.542252538665687098e+03 6.394439648873280202e-01
1.654775878750259110e+00 2.712692614556137414e+03 1.661893009732421206e+03 5.749000241167218084e-01
1.730428269758315096e+00 2.915235675238974181e+03 1.771669317522774691e+03 5.103560833461159296e-01
1.806080660766371082e+00 3.122339411690242287e+03 1.870575748087637749e+03 4.458121425755100509e-01
1.881733051774427512e+00 3.333338188956135127e+03 1.957746384434406764e+03 3.812682018049037835e-01
1.957385442782483498e+00 3.547995903988555710e+03 2.074488478648172986e+03 7.012214443423908650e-01
2.033037833790539484e+00 3.768161176288410388e+03 2.217046512133014403e+03 5.959783404485939906e-01
2.108690224798595914e+00 3.993384704096036785e+03 2.357603375301495817e+03 6.512071713800370309e-01
