# density  energy_density  pressure   sound_speed_squared  [All in nuclear units]
2.720000000000000022e-14 2.529924618736292620e-11 1.061056609100270887e-19 3.766610435412189122e-08
1.269999999999999890e-13 1.181251617980081254e-10 4.870113551826584858e-18 6.497781477172163475e-08
6.929999999999999754e-13 6.445728594625782745e-10 1.018299070687946017e-16 3.033770597342807186e-07
6.295000000000000137e-12 5.855111460395753757e-09 5.487150723824490656e-15 1.763710043904196507e-06
1.581000000000000150e-11 1.470523320212576141e-08 2.904239460150760759e-14 3.559434472327477622e-06
3.971999999999999958e-11 3.694456170323160790e-08 1.439340266754906811e-13 6.772854871245677111e-06
9.975999999999999982e-11 9.278976412613005154e-08 6.812143616221268841e-13 1.246890511177539320e-05
2.505999999999999928e-10 2.330928829758143313e-07 3.107749196951638608e-12 2.212095130576091967e-05
6.294000000000000186e-10 5.854398883216247602e-07 1.363250409771533549e-11 3.761981047239428883e-05
1.581000000000000021e-09 1.470619631082054101e-06 5.726014178088476303e-11 6.095350986710739404e-05
3.971999999999999932e-09 3.694861084648016046e-06 2.210019573374265380e-10 8.628023653304385055e-05
5.000000000000000105e-09 4.651201787816927976e-06 3.071485916280120014e-10 9.387863480799757518e-05
9.975999999999999465e-09 9.280587964640925786e-06 8.385361004129998845e-10 1.356922228656245837e-04
1.989999999999999952e-08 1.851419242998081003e-05 2.287763168863418088e-09 1.782101978513718314e-04
3.972999999999999908e-08 3.696699295748789187e-05 6.061583099087538954e-09 2.308134738384234820e-04
7.925999999999999637e-08 7.375765469301719828e-05 1.575347858094044765e-08 2.960532096713864875e-04
1.580999999999999930e-07 1.471491184379128891e-04 3.910429618672550719e-08 3.402859755131850544e-04
1.991000000000000027e-07 1.853209783927820692e-04 5.252045687899177454e-08 3.626488188833278743e-04
3.155999999999999938e-07 2.938002528823880299e-04 9.730770378831954314e-08 4.630767356912104081e-04
5.000999999999999849e-07 4.656344063839075714e-04 1.837494945860225819e-07 5.430301232045120323e-04
6.295999999999999732e-07 5.862651417037388971e-04 2.503103884558263872e-07 5.605192962670089638e-04
9.666999999999999941e-07 9.003386739730535665e-04 4.324450868778576936e-07 5.993081670211623108e-04
1.531999999999999901e-06 1.427170885631398036e-03 7.780217275717420968e-07 7.125938556504039095e-04
2.506999999999999883e-06 2.336134972129507662e-03 1.471005394641589826e-06 8.121876172121876309e-04
3.974000000000000407e-06 3.704315759716615697e-03 2.695705763844323844e-06 9.780674166779417152e-04
4.830000000000000343e-06 4.502887798316278223e-03 3.503988717694660908e-06 1.046253037768318664e-03
6.080999999999999885e-06 5.670217999231269741e-03 4.731126407333307547e-06 1.056224360839501646e-03
7.930000000000000308e-06 7.396012414119570652e-03 6.599662989063778187e-06 1.109203753630785610e-03
9.982000000000000313e-06 9.311815711689977113e-03 8.879881089227186733e-06 1.271216815433141075e-03
1.256999999999999993e-05 1.172874412604260098e-02 1.207676739913533738e-05 1.374195438212825332e-03
1.521999999999999997e-05 1.420427250933824909e-02 1.547541302213394990e-05 1.371610497379100249e-03
1.991000000000000080e-05 1.858690797761085312e-02 2.160710455847765458e-05 1.426578142835871997e-03
2.506999999999999883e-05 2.341050104039446925e-02 2.908031724375689851e-05 1.672007475975408053e-03
2.790999999999999875e-05 2.606604784714952258e-02 3.357009132255487721e-05 1.709425557744154774e-03
3.806999999999999973e-05 3.556967988784798945e-02 4.986781576435106434e-05 1.720407281314112165e-03
5.063000000000000145e-05 4.732434580343149871e-02 7.073400252905581275e-05 1.829889149838781265e-03
6.592000000000000583e-05 6.164112392498975052e-02 9.765037643900635188e-05 1.930242980462695823e-03
8.433000000000000066e-05 7.888776783401378612e-02 1.317235490470395893e-04 2.021055815200022837e-03
1.062000000000000064e-04 9.938561165478684845e-02 1.740088341640037047e-04 2.104789529260958983e-03
1.321000000000000126e-04 1.236720406455826121e-01 2.260189757651373944e-04 2.178291718403657477e-03
1.623999999999999901e-04 1.520974545104751274e-01 2.888169908545388338e-04 2.240170365918073281e-03
1.689999999999999879e-04 1.582907717069566844e-01 3.027354772999506964e-04 2.254509350360745651e-03
1.758999999999999930e-04 1.647661861691531171e-01 3.173785841705756782e-04 2.268169273277113179e-03
1.830000000000000029e-04 1.714298948183871907e-01 3.325196584577469103e-04 2.276170334580628063e-03
1.901999999999999882e-04 1.781880600978280049e-01 3.479577791899843742e-04 2.292561569242367037e-03
1.977000000000000079e-04 1.852284385240466902e-01 3.641242634600037713e-04 2.299943765467868384e-03
2.054000000000000053e-04 1.924572004474696396e-01 3.808304060475003897e-04 2.322187632288155723e-03
2.079000000000000119e-04 1.948043378760714872e-01 3.864137987380476553e-04 2.435429768083530178e-03
2.081999999999999921e-04 1.950859988578999005e-01 3.870314100985603909e-04 1.950065624557156818e-03
2.090999999999999868e-04 1.959309855029948977e-01 3.881261957135444685e-04 6.411875526909013856e-04
2.159999999999999919e-04 2.024093317906446865e-01 3.940874488768042125e-04 1.199166870571831411e-03
2.231000000000000019e-04 2.090756740932291913e-01 4.013938420547467825e-04 9.928616047829054436e-04
2.311000000000000066e-04 2.165873044433437034e-01 4.085241694843774404e-04 9.056166966301716637e-04
2.401000000000000085e-04 2.250381721984245909e-01 4.159700687886608468e-04 8.565463878902855599e-04
2.500000000000000052e-04 2.343344406330727658e-01 4.237602369176299592e-04 8.194318812157330018e-04
2.642999999999999733e-04 2.477629128650125634e-01 4.345596643180389446e-04 7.890063723638815647e-04
3.052999999999999941e-04 2.862671839140227270e-01 4.644058706720978241e-04 7.612775562167708662e-04
3.533000000000000224e-04 3.313503829113090826e-01 4.987577676308450197e-04 7.626578558207241024e-04
4.075999999999999871e-04 3.823564017794535141e-01 5.381334366106255759e-04 7.813048116943254948e-04
4.679999999999999915e-04 4.390986251953180042e-01 5.832692638200615834e-04 8.096035963157804938e-04
5.341000000000000261e-04 5.012024644415256081e-01 6.346556894078133086e-04 8.452514814113673558e-04
6.059000000000000366e-04 5.686690698184251325e-01 6.930641302632923034e-04 8.862253587289389486e-04
7.661000000000000275e-04 7.192254882508629654e-01 8.328184776562496576e-04 9.702780530519144065e-04
1.262000000000000101e-03 1.185459127778160093e+00 1.338484980802662205e-03 1.198863597978450275e-03
1.894999999999999983e-03 1.780909071169781921e+00 2.123481960401060308e-03 1.437771491635827115e-03
2.673000000000000029e-03 2.513147344746868850e+00 3.261860252001994032e-03 1.671524566936786766e-03
3.605999999999999830e-03 3.391736073717691369e+00 4.828136641022434151e-03 1.893900408978071038e-03
4.709999999999999777e-03 4.431905410739045870e+00 6.903512974832482635e-03 2.096551352830673849e-03
7.496000000000000059e-03 7.058993649504918366e+00 1.289742191321638018e-02 2.466596387205546859e-03
1.119999999999999989e-02 1.055540362104863661e+01 2.212077014004794340e-02 2.809304433764861584e-03
1.600000000000000033e-02 1.509117352747679952e+01 3.559566804390756900e-02 3.132325055719984222e-03
2.206999999999999934e-02 2.083310616724802244e+01 5.457322122755020599e-02 3.477840948757840792e-03
2.947999999999999926e-02 2.785007348564149154e+01 8.049103664263126956e-02 3.909302116317729670e-03
4.268000000000000266e-02 4.036707211535221518e+01 1.353887601042819133e-01 4.862066536253286525e-03
6.219999999999999835e-02 5.891246509830522626e+01 2.419691225623893105e-01 6.630786177272363080e-03
7.316999999999999893e-02 6.935151695866235855e+01 3.161896974764099033e-01 7.588671314871411888e-03
7.595999999999999974e-02 7.200836722020332559e+01 3.371250777904805096e-01 8.170805199905812125e-03
7.685877551020407761e-02 7.286441686902227843e+01 3.442179212191089355e-01 8.400288053379287648e-03
7.775755102040816935e-02 7.372055065877907509e+01 3.515162678844792610e-01 8.649248192713811928e-03
7.865632653061224722e-02 7.457677008674374974e+01 3.590365211075323693e-01 8.916922043753373189e-03
7.955510204081632508e-02 7.543307679973368352e+01 3.667944377772199838e-01 9.202546032341966595e-03
8.045387755102040295e-02 7.628947258174073909e+01 3.748051283112427967e-01 9.505356584323589042e-03
8.135265306122449469e-02 7.714595934211126860e+01 3.830830566166226192e-01 9.824590125542237429e-03
8.225142857142857256e-02 7.800253910424787307e+01 3.916420400456223638e-01 1.015948308184189824e-02
8.315020408163265042e-02 7.885921399480488958e+01 4.004952493429861926e-01 1.050927187906656839e-02
8.404897959183672829e-02 7.971598623334951128e+01 4.096552085808914390e-01 1.087319294306024128e-02
8.494775510204082003e-02 8.057285812246573187e+01 4.191337950784010946e-01 1.125048269966692077e-02
8.584653061224489790e-02 8.142983203827475336e+01 4.289422393025698610e-01 1.164037757473058467e-02
8.674530612244897576e-02 8.228691042135234568e+01 4.390911247487017666e-01 1.204211399409523681e-02
8.764408163265305363e-02 8.314409576802096069e+01 4.495903877975704344e-01 1.245492838360487062e-02
8.854285714285714537e-02 8.400139062199696127e+01 4.604493175477175626e-01 1.287805716910348647e-02
8.944163265306122323e-02 8.485879756637601190e+01 4.716765556212169086e-01 1.331073677643506391e-02
9.034040816326530110e-02 8.571631921593817083e+01 4.832800959415572417e-01 1.375220363144360677e-02
9.123918367346939284e-02 8.657395820975654033e+01 4.952672844825348752e-01 1.420169415997311023e-02
9.213795918367347071e-02 8.743171720409506520e+01 5.076448189872780903e-01 1.465844478786756250e-02
9.303673469387754857e-02 8.828959886558016024e+01 5.204187486567408705e-01 1.512169194097095701e-02
9.393551020408162644e-02 8.914760586463357583e+01 5.335944738071982663e-01 1.559067204512729413e-02
9.483428571428570431e-02 9.000574086915264616e+01 5.471767454964695521e-01 1.606462152618056555e-02
9.573306122448979605e-02 9.086400653842628117e+01 5.611696651187696450e-01 1.654277680997476990e-02
9.663183673469387391e-02 9.172240551727661284e+01 5.755766839682545655e-01 1.702437432235389542e-02
9.753061224489795178e-02 9.258094043041297994e+01 5.904006027714883142e-01 1.750865048916193031e-02
9.842938775510204352e-02 9.343961387699039278e+01 6.056435711891988705e-01 1.799484173624289057e-02
9.932816326530612139e-02 9.429842842536208991e+01 6.213070872878349027e-01 1.848218448944074360e-02
1.002269387755101993e-01 9.515738660801672211e+01 6.373919969815686759e-01 1.896991517459949844e-02
1.011257142857142910e-01 9.601649091669223424e+01 6.538984934455059905e-01 1.945727021756315372e-02
1.020244897959183689e-01 9.687574379765810306e+01 6.708261165009891114e-01 1.994348604417568727e-02
1.029232653061224467e-01 9.773514764715838510e+01 6.881737519739897779e-01 2.042779908028110811e-02
1.038220408163265246e-01 9.859470480700770167e+01 7.059396310276860875e-01 2.090944575172340100e-02
1.047208163265306025e-01 9.945441756033494585e+01 7.241213294704273995e-01 2.138766248434656805e-02
1.056195918367346942e-01 1.003142881274654172e+02 7.427157670403786716e-01 2.186168570399459748e-02
1.065183673469387721e-01 1.011743186619389405e+02 7.617192066682271223e-01 2.233075183651148793e-02
1.074171428571428499e-01 1.020345112466540201e+02 7.811272537194238197e-01 2.279409730774122761e-02
1.083159183673469417e-01 1.028948678901362541e+02 8.009348552175047375e-01 2.325095854352781516e-02
1.092146938775510195e-01 1.037553905229231219e+02 8.211362990501208659e-01 2.370057196971524227e-02
1.101134693877550974e-01 1.046160809940619458e+02 8.417252131594813447e-01 2.414217401214750064e-02
1.110122448979591891e-01 1.054769410677142218e+02 8.626945647189743216e-01 2.457500109666860277e-02
1.119110204081632531e-01 1.063379724198649114e+02 8.840366592978059490e-01 2.499828964912251261e-02
1.128097959183673449e-01 1.071991766351293904e+02 9.057431400155647738e-01 2.541127609535324960e-02
1.137085714285714227e-01 1.080605552036558379e+02 9.278049866886607377e-01 2.581319686120478810e-02
1.146073469387755006e-01 1.089221095181186740e+02 9.502125149706767138e-01 2.620328837252113713e-02
1.155061224489795924e-01 1.097838408708001907e+02 9.729553754886961503e-01 2.658078705514629880e-02
1.164048979591836702e-01 1.106457504507550880e+02 9.960225529777433362e-01 2.694492933492424053e-02
1.173036734693877481e-01 1.115078393410566093e+02 1.019402365415519984e+00 2.729495163769897134e-02
1.182024489795918398e-01 1.123701085161208653e+02 1.043082463159663797e+00 2.763009038931448641e-02
1.191012244897959177e-01 1.132325588391049536e+02 1.067049828089809971e+00 2.794958201561477742e-02
1.199999999999999956e-01 1.140951910593781520e+02 1.091290772756782657e+00 2.825266294244384649e-02
1.214329055913635352e-01 1.154708519523533425e+02 1.130471041621452510e+00 2.870937987240836792e-02
1.228658111827270888e-01 1.168469789457190160e+02 1.170291784269190893e+00 2.916420503639288384e-02
1.242987167740906285e-01 1.182235740601913818e+02 1.210750760457243835e+00 2.961696367990230075e-02
1.257316223654541820e-01 1.196006392426766354e+02 1.251845487620200537e+00 3.006748185724011230e-02
1.271645279568177356e-01 1.209781763660364931e+02 1.293573241451854372e+00 3.051558637452013098e-02
1.285974335481812614e-01 1.223561872288700840e+02 1.335931056407233974e+00 3.096110473055632695e-02
1.300303391395448149e-01 1.237346735553103088e+02 1.378915726122006191e+00 3.140386505565680858e-02
1.314632447309083685e-01 1.251136369948337830e+02 1.422523803746460702e+00 3.184369604834388218e-02
1.328961503222719220e-01 1.264930791220824631e+02 1.466751602191329829e+00 3.228042691001709041e-02
1.343290559136354478e-01 1.278730014366942100e+02 1.511595194282670640e+00 3.271388727757462006e-02
1.357619615049990014e-01 1.292534053631429174e+02 1.557050412823073993e+00 3.314390715400407361e-02
1.371948670963625549e-01 1.306342922505843944e+02 1.603112850556433600e+00 3.357031683695017171e-02
1.386277726877260807e-01 1.320156633727088433e+02 1.649777860033541987e+00 3.399294684526445870e-02
1.400606782790896343e-01 1.333975199275963917e+02 1.697040553375745109e+00 3.441162784353975906e-02
1.414935838704531879e-01 1.347798630375768596e+02 1.744895801933881385e+00 3.482619056462861462e-02
1.429264894618167414e-01 1.361626937490898968e+02 1.793338235839738948e+00 3.523646573014217048e-02
1.443593950531802950e-01 1.375460130325472505e+02 1.842362243447222214e+00 3.564228396892527018e-02
1.457923006445438208e-01 1.389298217821923345e+02 1.891961970660413384e+00 3.604347573349882261e-02
1.472252062359073743e-01 1.403141208159602797e+02 1.942131320145698448e+00 3.643987121446031624e-02
1.486581118272709279e-01 1.416989108753336950e+02 1.992863950425079578e+00 3.683130025282999043e-02
1.500910174186344537e-01 1.430841926251952714e+02 2.044153274847803292e+00 3.721759225032861967e-02
1.515239230099980072e-01 1.444699666536757263e+02 2.095992460437380078e+00 3.759857607757119413e-02
1.529568286013615608e-01 1.458562334719953242e+02 2.148374426611034504e+00 3.797407998015796954e-02
1.543897341927251143e-01 1.472429935142996271e+02 2.201291843768620193e+00 3.834393148263682410e-02
1.558226397840886401e-01 1.486302471374870038e+02 2.254737131747984957e+00 3.870795729035469285e-02
1.572555453754521937e-01 1.500179946210278672e+02 2.308702458143721437e+00 3.906598318908029860e-02
1.586884509668157472e-01 1.514062361667743062e+02 2.363179736486194393e+00 3.941783394249465111e-02
1.601213565581792730e-01 1.527949718987600534e+02 2.418160624277750692e+00 3.976333318743573153e-02
1.615542621495428266e-01 1.541842018629888571e+02 2.473636520882912748e+00 4.010230332690321170e-02
1.629871677409063802e-01 1.555739260272110585e+02 2.529598565269331800e+00 4.043456542078871507e-02
1.644200733322699337e-01 1.569641442806880320e+02 2.586037633596258711e+00 4.075993907430082441e-02
1.658529789236334873e-01 1.583548564339421887e+02 2.642944336647205184e+00 4.107824232405326431e-02
1.672858845149970131e-01 1.597460622184934209e+02 2.700309017103449172e+00 4.138929152178284776e-02
1.687187901063605666e-01 1.611377612865809397e+02 2.758121746654980555e+00 4.169290121566335966e-02
1.701516956977241202e-01 1.625299532108679159e+02 2.816372322945424056e+00 4.198888402917914237e-02
1.715846012890876460e-01 1.639226374841311724e+02 2.875050266347454642e+00 4.227705053752280062e-02
1.730175068804511995e-01 1.653158135189325435e+02 2.934144816565142033e+00 4.255720914147870237e-02
1.744504124718147531e-01 1.667094806472725566e+02 2.993644929059613879e+00 4.282916593875427808e-02
1.758833180631783066e-01 1.681036381202259236e+02 3.053539271294398727e+00 4.309272459271936556e-02
1.773162236545418602e-01 1.694982851075563133e+02 3.113816218796729984e+00 4.334768619851360472e-02
1.787491292459053860e-01 1.708934206973128767e+02 3.174463851031054773e+00 4.359384914648117837e-02
1.801820348372689395e-01 1.722890438954033243e+02 3.235469947080941377e+00 4.383100898289046810e-02
1.816149404286324653e-01 1.736851536251484163e+02 3.296821981135506618e+00 4.405895826789744951e-02
1.830478460199960189e-01 1.750817487268113268e+02 3.358507117776476480e+00 4.427748643070938961e-02
1.844807516113595725e-01 1.764788279571060912e+02 3.420512207061879639e+00 4.448637962190584577e-02
1.859136572027231260e-01 1.778763899886814102e+02 3.482823779402389075e+00 4.468542056287408415e-02
1.873465627940866796e-01 1.792744334095798706e+02 3.545428040226223931e+00 4.487438839231426557e-02
1.887794683854502054e-01 1.806729567226729500e+02 3.608310864428504683e+00 4.505305850977189136e-02
1.902123739768137589e-01 1.820719583450693051e+02 3.671457790600904048e+00 4.522120241615269765e-02
2.679631418548379385e-01 2.598946237255248661e+02 1.552733611300634387e+01 2.537494245160973882e-01
3.457139097328622013e-01 3.428800035140257592e+02 3.968591733100133467e+01 3.258855006199867232e-01
4.234646776108863531e-01 4.320298184301908577e+02 6.988880013378633294e+01 3.512217631698568154e-01
5.012154454889106159e-01 5.271341695072510447e+02 1.045208356558511014e+02 3.765580257197269631e-01
5.789662133669347677e-01 6.279697021796602030e+02 1.437959989261161127e+02 4.018942882695970553e-01
6.567169812449590305e-01 7.344041091565429724e+02 1.879494729595947433e+02 4.272305508194672030e-01
7.344677491229831823e-01 8.463656897765389431e+02 2.372332523867711700e+02 4.525668133693373507e-01
8.122185170010074451e-01 9.637217443417296181e+02 2.882046655030910642e+02 4.174562998083745646e-01
8.899692848790317079e-01 1.085819026011461119e+03 3.354649021894794032e+02 3.583162468332544148e-01
9.677200527570558597e-01 1.211793293175957842e+03 3.768032737247618797e+02 2.991761938581343760e-01
1.045470820635080011e+00 1.340860255088158283e+03 4.126635100351767278e+02 2.571560887255815997e-01
1.123221588513104274e+00 1.472477793979387116e+03 4.458430792907590217e+02 2.471894026675916789e-01
1.200972356391128537e+00 1.606368192111526923e+03 4.782626684660197043e+02 2.372227166096017581e-01
1.278723124269152578e+00 1.742331874412077241e+03 5.098304333523876721e+02 2.272560305516118651e-01
1.356473892147176841e+00 1.880188297461756520e+03 5.404647637972635721e+02 2.172893444936219165e-01
1.434224660025201104e+00 2.019773218419899877e+03 5.700929363257546356e+02 2.073226584356319957e-01
1.511975427903225366e+00 2.160936491244920489e+03 5.986500120568389320e+02 1.973559723776420749e-01
1.589726195781249629e+00 2.303540265407255447e+03 6.260779235708229180e+02 1.873892863196521263e-01
1.667476963659273670e+00 2.447457496650604298e+03 6.523247096426941880e+02 1.774226002616622333e-01
1.745227731537297933e+00 2.592576089482972293e+03 6.776269690802158721e+02 1.713275215958909026e-01
1.822978499415322196e+00 2.738813403066655610e+03 7.025859929866975335e+02 1.700366497459234183e-01
1.900729267293346236e+00 2.886115382660427258e+03 7.275366640997262948e+02 1.687457778959559618e-01
1.978480035171370499e+00 3.034437904684900786e+03 7.524688084759166031e+02 1.674549060459884775e-01
2.056230803049394762e+00 3.183739929543363814e+03 7.773729386242002874e+02 1.661640341960209932e-01
