# density  energy_density  pressure   sound_speed_squared  [All in nuclear units]
2.720000000000000022e-14 2.529924618736292620e-11 1.061056609100270887e-19 3.766610435412189122e-08
1.269999999999999890e-13 1.181251617980081254e-10 4.870113551826584858e-18 6.497781477172163475e-08
6.929999999999999754e-13 6.445728594625782745e-10 1.018299070687946017e-16 3.033770597342807186e-07
6.295000000000000137e-12 5.855111460395753757e-09 5.487150723824490656e-15 1.763710043904196507e-06
1.581000000000000150e-11 1.470523320212576141e-08 2.904239460150760759e-14 3.559434472327477622e-06
3.971999999999999958e-11 3.694456170323160790e-08 1.439340266754906811e-13 6.772854871245677111e-06
9.975999999999999982e-11 9.278976412613005154e-08 6.812143616221268841e-13 1.246890511177539320e-05
2.505999999999999928e-10 2.330928829758143313e-07 3.107749196951638608e-12 2.212095130576091967e-05
6.294000000000000186e-10 5.854398883216247602e-07 1.363250409771533549e-11 3.761981047239428883e-05
1.581000000000000021e-09 1.470619631082054101e-06 5.726014178088476303e-11 6.095350986710739404e-05
3.971999999999999932e-09 3.694861084648016046e-06 2.210019573374265380e-10 8.628023653304385055e-05
5.000000000000000105e-09 4.651201787816927976e-06 3.071485916280120014e-10 9.387863480799757518e-05
9.975999999999999465e-09 9.280587964640925786e-06 8.385361004129998845e-10 1.356922228656245837e-04
1.989999999999999952e-08 1.851419242998081003e-05 2.287763168863418088e-09 1.782101978513718314e-04
3.972999999999999908e-08 3.696699295748789187e-05 6.061583099087538954e-09 2.308134738384234820e-04
7.925999999999999637e-08 7.375765469301719828e-05 1.575347858094044765e-08 2.960532096713864875e-04
1.580999999999999930e-07 1.471491184379128891e-04 3.910429618672550719e-08 3.402859755131850544e-04
1.991000000000000027e-07 1.853209783927820692e-04 5.252045687899177454e-08 3.626488188833278743e-04
3.155999999999999938e-07 2.938002528823880299e-04 9.730770378831954314e-08 4.630767356912104081e-04
5.000999999999999849e-07 4.656344063839075714e-04 1.837494945860225819e-07 5.430301232045120323e-04
6.295999999999999732e-07 5.862651417037388971e-04 2.503103884558263872e-07 5.605192962670089638e-04
9.666999999999999941e-07 9.003386739730535665e-04 4.324450868778576936e-07 5.993081670211623108e-04
1.531999999999999901e-06 1.427170885631398036e-03 7.780217275717420968e-07 7.125938556504039095e-04
2.506999999999999883e-06 2.336134972129507662e-03 1.471005394641589826e-06 8.121876172121876309e-04
3.974000000000000407e-06 3.704315759716615697e-03 2.695705763844323844e-06 9.780674166779417152e-04
4.830000000000000343e-06 4.502887798316278223e-03 3.503988717694660908e-06 1.046253037768318664e-03
6.080999999999999885e-06 5.670217999231269741e-03 4.731126407333307547e-06 1.056224360839501646e-03
7.930000000000000308e-06 7.396012414119570652e-03 6.599662989063778187e-06 1.109203753630785610e-03
9.982000000000000313e-06 9.311815711689977113e-03 8.879881089227186733e-06 1.271216815433141075e-03
1.256999999999999993e-05 1.172874412604260098e-02 1.207676739913533738e-05 1.374195438212825332e-03
1.521999999999999997e-05 1.420427250933824909e-02 1.547541302213394990e-05 1.371610497379100249e-03
1.991000000000000080e-05 1.858690797761085312e-02 2.160710455847765458e-05 1.426578142835871997e-03
2.506999999999999883e-05 2.341050104039446925e-02 2.908031724375689851e-05 1.672007475975408053e-03
2.790999999999999875e-05 2.606604784714952258e-02 3.357009132255487721e-05 1.709425557744154774e-03
3.806999999999999973e-05 3.556967988784798945e-02 4.986781576435106434e-05 1.720407281314112165e-03
5.063000000000000145e-05 4.732434580343149871e-02 7.073400252905581275e-05 1.829889149838781265e-03
6.592000000000000583e-05 6.164112392498975052e-02 9.765037643900635188e-05 1.930242980462695823e-03
8.433000000000000066e-05 7.888776783401378612e-02 1.317235490470395893e-04 2.021055815200022837e-03
1.062000000000000064e-04 9.938561165478684845e-02 1.740088341640037047e-04 2.104789529260958983e-03
1.321000000000000126e-04 1.236720406455826121e-01 2.260189757651373944e-04 2.178291718403657477e-03
1.623999999999999901e-04 1.520974545104751274e-01 2.888169908545388338e-04 2.240170365918073281e-03
1.689999999999999879e-04 1.582907717069566844e-01 3.027354772999506964e-04 2.254509350360745651e-03
1.758999999999999930e-04 1.647661861691531171e-01 3.173785841705756782e-04 2.268169273277113179e-03
1.830000000000000029e-04 1.714298948183871907e-01 3.325196584577469103e-04 2.276170334580628063e-03
1.901999999999999882e-04 1.781880600978280049e-01 3.479577791899843742e-04 2.292561569242367037e-03
1.977000000000000079e-04 1.852284385240466902e-01 3.641242634600037713e-04 2.299943765467868384e-03
2.054000000000000053e-04 1.924572004474696396e-01 3.808304060475003897e-04 2.322187632288155723e-03
2.079000000000000119e-04 1.948043378760714872e-01 3.864137987380476553e-04 2.435429768083530178e-03
2.081999999999999921e-04 1.950859988578999005e-01 3.870314100985603909e-04 1.950065624557156818e-03
2.090999999999999868e-04 1.959309855029948977e-01 3.881261957135444685e-04 6.411875526909013856e-04
2.159999999999999919e-04 2.024093317906446865e-01 3.940874488768042125e-04 1.199166870571831411e-03
2.231000000000000019e-04 2.090756740932291913e-01 4.013938420547467825e-04 9.928616047829054436e-04
2.311000000000000066e-04 2.165873044433437034e-01 4.085241694843774404e-04 9.056166966301716637e-04
2.401000000000000085e-04 2.250381721984245909e-01 4.159700687886608468e-04 8.565463878902855599e-04
2.500000000000000052e-04 2.343344406330727658e-01 4.237602369176299592e-04 8.194318812157330018e-04
2.642999999999999733e-04 2.477629128650125634e-01 4.345596643180389446e-04 7.890063723638815647e-04
3.052999999999999941e-04 2.862671839140227270e-01 4.644058706720978241e-04 7.612775562167708662e-04
3.533000000000000224e-04 3.313503829113090826e-01 4.987577676308450197e-04 7.626578558207241024e-04
4.075999999999999871e-04 3.823564017794535141e-01 5.381334366106255759e-04 7.813048116943254948e-04
4.679999999999999915e-04 4.390986251953180042e-01 5.832692638200615834e-04 8.096035963157804938e-04
5.341000000000000261e-04 5.012024644415256081e-01 6.346556894078133086e-04 8.452514814113673558e-04
6.059000000000000366e-04 5.686690698184251325e-01 6.930641302632923034e-04 8.862253587289389486e-04
7.661000000000000275e-04 7.192254882508629654e-01 8.328184776562496576e-04 9.702780530519144065e-04
1.262000000000000101e-03 1.185459127778160093e+00 1.338484980802662205e-03 1.198863597978450275e-03
1.894999999999999983e-03 1.780909071169781921e+00 2.123481960401060308e-03 1.437771491635827115e-03
2.673000000000000029e-03 2.513147344746868850e+00 3.261860252001994032e-03 1.671524566936786766e-03
3.605999999999999830e-03 3.391736073717691369e+00 4.828136641022434151e-03 1.893900408978071038e-03
4.709999999999999777e-03 4.431905410739045870e+00 6.903512974832482635e-03 2.096551352830673849e-03
7.496000000000000059e-03 7.058993649504918366e+00 1.289742191321638018e-02 2.466596387205546859e-03
1.119999999999999989e-02 1.055540362104863661e+01 2.212077014004794340e-02 2.809304433764861584e-03
1.600000000000000033e-02 1.509117352747679952e+01 3.559566804390756900e-02 3.132325055719984222e-03
2.206999999999999934e-02 2.083310616724802244e+01 5.457322122755020599e-02 3.477840948757840792e-03
2.947999999999999926e-02 2.785007348564149154e+01 8.049103664263126956e-02 3.909302116317729670e-03
4.268000000000000266e-02 4.036707211535221518e+01 1.353887601042819133e-01 4.862066536253286525e-03
6.219999999999999835e-02 5.891246509830522626e+01 2.419691225623893105e-01 6.630786177272363080e-03
7.316999999999999893e-02 6.935151695866235855e+01 3.161896974764099033e-01 7.588671314871411888e-03
7.595999999999999974e-02 7.200836722020332559e+01 3.371250777904805096e-01 8.170805199905810390e-03
7.685877551020407761e-02 7.286441677196816613e+01 3.442013118562604057e-01 8.361487177047382743e-03
7.775755102040816935e-02 7.372055001468629598e+01 3.514390372341929525e-01 8.546446733593738784e-03
7.865632653061224722e-02 7.457676782073804134e+01 3.588335765466069138e-01 8.726111984464247906e-03
7.955510204081632508e-02 7.543307099119283521e+01 3.663806174640352742e-01 8.900911044578281237e-03
8.045387755102040295e-02 7.628946026235067279e+01 3.740762128336519443e-01 9.071272028855218578e-03
8.135265306122449469e-02 7.714593631199457491e+01 3.819167808173105638e-01 9.237623052214427588e-03
8.225142857142857256e-02 7.800249976536640872e+01 3.898991050380632983e-01 9.400392229575279396e-03
8.315020408163265042e-02 7.885915120088473884e+01 3.980203347341687015e-01 9.560007675857145129e-03
8.404897959183672829e-02 7.971589115561636163e+01 4.062779849197098447e-01 9.716897505979399385e-03
8.494775510204082003e-02 8.057272013051517945e+01 4.146699365510587154e-01 9.871489834861418497e-03
8.584653061224489790e-02 8.142963859544228455e+01 4.231944366985220807e-01 1.002421277742256492e-02
8.674530612244897576e-02 8.228664699397614868e+01 4.318500987226020493e-01 1.017549444858221498e-02
8.764408163265305363e-02 8.314374574802663176e+01 4.406359024543892167e-01 1.032576296325974502e-02
8.854285714285714537e-02 8.400093526226056895e+01 4.495511943796947629e-01 1.047544643637452616e-02
8.944163265306122323e-02 8.485821592834996352e+01 4.585956878266005954e-01 1.062497298284592259e-02
9.034040816326530110e-02 8.571558812905168168e+01 4.677694631561846728e-01 1.077477071759331585e-02
9.123918367346939284e-02 8.657305224212555572e+01 4.770729679562404901e-01 1.092526775553607533e-02
9.213795918367347071e-02 8.743060864410155375e+01 4.865070172378787028e-01 1.107689221159356870e-02
9.303673469387754857e-02 8.828825771390039279e+01 4.960727936349579870e-01 1.123007220068517574e-02
9.393551020408162644e-02 8.914599983631711666e+01 5.057718476063447488e-01 1.138523583773026412e-02
9.483428571428570431e-02 9.000383540537303872e+01 5.156060976410591357e-01 1.154281123764820151e-02
9.573306122448979605e-02 9.086176482754238748e+01 5.255778304664108225e-01 1.170322651535836943e-02
9.663183673469387391e-02 9.171978852485996470e+01 5.356897012592765073e-01 1.186690978578013728e-02
9.753061224489795178e-02 9.257790693791507408e+01 5.459447338607159583e-01 1.203428916383287445e-02
9.842938775510204352e-02 9.343612052873699270e+01 5.563463209941612586e-01 1.220579276443595554e-02
9.932816326530612139e-02 9.429442978357700156e+01 5.668982244874563037e-01 1.238184870250874647e-02
1.002269387755101993e-01 9.515283521559224766e+01 5.776045754990616343e-01 1.256288509297062879e-02
1.011257142857142910e-01 9.601133736743450697e+01 5.884698747487695503e-01 1.274933005074097361e-02
1.020244897959183689e-01 9.686993681374991638e+01 5.994989927533111995e-01 1.294161169073914514e-02
1.029232653061224467e-01 9.772863416359170685e+01 6.106971700672699788e-01 1.314015812788451795e-02
1.038220408163265246e-01 9.858743006275184939e+01 6.220700175297390055e-01 1.334539747709646840e-02
1.047208163265306025e-01 9.944632519601330500e+01 6.336235165171950623e-01 1.355775785329436760e-02
1.056195918367346942e-01 1.003053202893274971e+02 6.453640192030840605e-01 1.377766737139759015e-02
1.065183673469387721e-01 1.011644161119198060e+02 6.572982488246378319e-01 1.400555414632550025e-02
1.074171428571428499e-01 1.020236134783261974e+02 6.694332999574702514e-01 1.424184629299747769e-02
1.083159183673469417e-01 1.028829132503645809e+02 6.817766387985169096e-01 1.448697192633289013e-02
1.092146938775510195e-01 1.037423163390418637e+02 6.943361034579089708e-01 1.474135916125111218e-02
1.101134693877550974e-01 1.046018237064020724e+02 7.071199042603926177e-01 1.500543611267151495e-02
1.110122448979591891e-01 1.054614363673160398e+02 7.201366240569200272e-01 1.527963089551347305e-02
1.119110204081632531e-01 1.063211553912150578e+02 7.333952185470610230e-01 1.556437162469635066e-02
1.128097959183673449e-01 1.071809819037726754e+02 7.469050166129048707e-01 1.586008641513953280e-02
1.137085714285714227e-01 1.080409170885346981e+02 7.606757206651261205e-01 1.616720338176237670e-02
1.146073469387755006e-01 1.089009621885008841e+02 7.747174070019245962e-01 1.648615063948426912e-02
1.155061224489795924e-01 1.097611185076596314e+02 7.890405261815445215e-01 1.681735630322457251e-02
1.164048979591836702e-01 1.106213874124778300e+02 8.036559034091068643e-01 1.716124848790266319e-02
1.173036734693877481e-01 1.114817703333481944e+02 8.185747389384993022e-01 1.751825530843791057e-02
1.182024489795918398e-01 1.123422687659947172e+02 8.338086084900787620e-01 1.788880487974969444e-02
1.191012244897959177e-01 1.132028842728392561e+02 8.493694636849572488e-01 1.827332531675738073e-02
1.199999999999999956e-01 1.140636184843292540e+02 8.652696324966586694e-01 1.867224473438033189e-02
1.215067452158650613e-01 1.155068613129283079e+02 8.927199500870097726e-01 1.936745746121148332e-02
1.230134904317301270e-01 1.169504508271539294e+02 9.211876537633065798e-01 2.007262911164960431e-02
1.245202356475951927e-01 1.183943953337351616e+02 9.506877036343321929e-01 2.078765556987926394e-02
1.260269808634602584e-01 1.198387031186653076e+02 9.812349390370816993e-01 2.151243520731555697e-02
1.275337260793253380e-01 1.212833824465246124e+02 1.012844082400032208e+00 2.224686888879541871e-02
1.290404712951903898e-01 1.227284415598805225e+02 1.045529743107757925e+00 2.299085997731865200e-02
1.305472165110554694e-01 1.241738886787615286e+02 1.079306421365329616e+00 2.374431433736906918e-02
1.320539617269205213e-01 1.256197320001995337e+02 1.114188512060963143e+00 2.450714033684826473e-02
1.335607069427856008e-01 1.270659796978371219e+02 1.150190308625446134e+00 2.527924884764650576e-02
1.350674521586506527e-01 1.285126399215962465e+02 1.187326006886865848e+00 2.606055324487602937e-02
1.365741973745157323e-01 1.299597207974047137e+02 1.225609708919230156e+00 2.685096940478916283e-02
1.380809425903807841e-01 1.314072304269767812e+02 1.265055426883555656e+00 2.765041570140076149e-02
1.395876878062458637e-01 1.328551768876461381e+02 1.305677086860059788e+00 2.845881300183450077e-02
1.410944330221109433e-01 1.343035682322460502e+02 1.347488532670069628e+00 2.927608466040839547e-02
1.426011782379759951e-01 1.357524124890364021e+02 1.390503529686311301e+00 3.010215651147548493e-02
1.441079234538410470e-01 1.372017176616734275e+02 1.434735768630233776e+00 3.093695686103161910e-02
1.456146686697061265e-01 1.386514917292215898e+02 1.480198869355032532e+00 3.178041647710457690e-02
1.471214138855712061e-01 1.401017426462015010e+02 1.526906384613053502e+00 3.263246857893298963e-02
1.486281591014362580e-01 1.415524783426773752e+02 1.574871803806259907e+00 3.349304882494587299e-02
1.501349043173013376e-01 1.430037067243763715e+02 1.624108556718445007e+00 3.436209529955043529e-02
1.516416495331663894e-01 1.444554356728425546e+02 1.674630017227865197e+00 3.523954849873569412e-02
1.531483947490314690e-01 1.459076730456196174e+02 1.726449506998998906e+00 3.612535131449774728e-02
1.546551399648965208e-01 1.473604266764640442e+02 1.779580299152083711e+00 3.701944901809217647e-02
1.561618851807616004e-01 1.488137043755850186e+02 1.834035621909138047e+00 3.792178924211785790e-02
1.576686303966266522e-01 1.502675139299103364e+02 1.889828662215107924e+00 3.883232196143564241e-02
1.591753756124917318e-01 1.517218631033760232e+02 1.946972569332832359e+00 3.975099947292481950e-02
1.606821208283567837e-01 1.531767596372400817e+02 2.005480458410450861e+00 4.067777637407894720e-02
1.621888660442218633e-01 1.546322112504168160e+02 2.065365414019928902e+00 4.161260954044285892e-02
1.636956112600869151e-01 1.560882256398312222e+02 2.126640493665303833e+00 4.255545810189131917e-02
1.652023564759519947e-01 1.575448104807941547e+02 2.189318731259303430e+00 4.350628341774934182e-02
1.667091016918170743e-01 1.590019734273927838e+02 2.253413140566913331e+00 4.446504905075357450e-02
1.682158469076821261e-01 1.604597221129003799e+02 2.318936718614514891e+00 4.543172073985435322e-02
1.697225921235471779e-01 1.619180641502007632e+02 2.385902449063157515e+00 4.640626637185590875e-02
1.712293373394122575e-01 1.633770071322264528e+02 2.454323305544524825e+00 4.738865595189391960e-02
1.727360825552773371e-01 1.648365586324127037e+02 2.524212254958146051e+00 4.837886157274723375e-02
1.742428277711423890e-01 1.662967262051624004e+02 2.595582260728380941e+00 4.937685738298120547e-02
1.757495729870074685e-01 1.677575173863240821e+02 2.668446286019686919e+00 5.038261955391996200e-02
1.772563182028725204e-01 1.692189396936801700e+02 2.742817296908640401e+00 5.139612624544349223e-02
1.787630634187376000e-01 1.706810006274456271e+02 2.818708265511217448e+00 5.241735757060621975e-02
1.802698086346026518e-01 1.721437076707767062e+02 2.896132173063737270e+00 5.344629555907336876e-02
1.817765538504677314e-01 1.736070682902864064e+02 2.975102012955942676e+00 5.448292411937005059e-02
1.832832990663327832e-01 1.750710899365699333e+02 3.055630793714578353e+00 5.552722899993931677e-02
1.847900442821978628e-01 1.765357800447359864e+02 3.137731541935892210e+00 5.657919774900459914e-02
1.862967894980629424e-01 1.780011460349440426e+02 3.221417305165381162e+00 5.763881967323093020e-02
1.878035347139279942e-01 1.794671953129484905e+02 3.306701154723150626e+00 5.870608579518095393e-02
1.893102799297930461e-01 1.809339352706473107e+02 3.393596188473189112e+00 5.978098880956018990e-02
1.908170251456581257e-01 1.824013732866344242e+02 3.482115533534839269e+00 6.086352303824649895e-02
1.923237703615232053e-01 1.838695167267564727e+02 3.572272348934740993e+00 6.195368438409856043e-02
1.938305155773882571e-01 1.853383729446728125e+02 3.664079828197490230e+00 6.305147028353820515e-02
2.715074438309109661e-01 2.631396904588405050e+02 1.671129373901764836e+01 2.662717848874432414e-01
3.491843720844336474e-01 3.468321703011200157e+02 4.798813554611287202e+01 4.694920994913481249e-01
4.268613003379563287e-01 4.395766189321304864e+02 1.017381153442302377e+02 6.727124140952530640e-01
5.045382285914790099e-01 5.427508020340490020e+02 1.451377868730393459e+02 1.938936647441381056e-01
5.822151568450016912e-01 6.502698043244085966e+02 1.675080522994342687e+02 2.218622787203496927e-01
6.598920850985244835e-01 7.610296974515342754e+02 1.938681265387056669e+02 2.536767760768255386e-01
7.375690133520471647e-01 8.752194666821380906e+02 2.265303128872533023e+02 3.172480439757968673e-01
8.152459416055698460e-01 9.932780758205494749e+02 2.678146695192407947e+02 3.808193118747681405e-01
8.929228698590925273e-01 1.115690234013880172e+03 3.184138179556310320e+02 4.443905797737394137e-01
9.705997981126152085e-01 1.242919780610467114e+03 3.791031583075326239e+02 5.079618476727107979e-01
1.048276726366137890e+00 1.375421407407054403e+03 4.507418447537669977e+02 5.715331155716820710e-01
1.125953654619660682e+00 1.513649019352322284e+03 5.342754830855445789e+02 6.351043834706533442e-01
1.203630582873183252e+00 1.658062005114779367e+03 6.307401056428939228e+02 6.986756513696246174e-01
1.281307511126706045e+00 1.809130170505444312e+03 7.412671711479939631e+02 7.622469192685958905e-01
1.358984439380228615e+00 1.967337800102178790e+03 8.670894460912636532e+02 8.258181871675671637e-01
1.436661367633751407e+00 2.133176058808581729e+03 1.006565594679492051e+03 8.551039500771163704e-01
1.514338295887274199e+00 2.306850130017952324e+03 1.154365799978703762e+03 8.473509176615239280e-01
1.592015224140796770e+00 2.488240388052307026e+03 1.307328738900906274e+03 8.395978852459314856e-01
1.669692152394319562e+00 2.677216614910746557e+03 1.465225921776626365e+03 8.318448528303390432e-01
1.747369080647842132e+00 2.873650180866523897e+03 1.627833203084392608e+03 8.240918204147466009e-01
1.825046008901364925e+00 3.077414024282526498e+03 1.794930715616378166e+03 8.163387879991541585e-01
1.902722937154887495e+00 3.288382632090501829e+03 1.966302805969805149e+03 8.085857555835617161e-01
1.980399865408410287e+00 3.506432020850429581e+03 2.141737971265042688e+03 8.008327231679691627e-01
2.058076793661932857e+00 3.731439718322688350e+03 2.321028797008981201e+03 7.930796907523767203e-01
