# density  energy_density  pressure   sound_speed_squared  [All in nuclear units]
2.720000000000000022e-14 2.529924618736292620e-11 1.061056609100270887e-19 3.766610435412189122e-08
1.269999999999999890e-13 1.181251617980081254e-10 4.870113551826584858e-18 6.497781477172163475e-08
6.929999999999999754e-13 6.445728594625782745e-10 1.018299070687946017e-16 3.033770597342807186e-07
6.295000000000000137e-12 5.855111460395753757e-09 5.487150723824490656e-15 1.763710043904196507e-06
1.581000000000000150e-11 1.470523320212576141e-08 2.904239460150760759e-14 3.559434472327477622e-06
3.971999999999999958e-11 3.694456170323160790e-08 1.439340266754906811e-13 6.772854871245677111e-06
9.975999999999999982e-11 9.278976412613005154e-08 6.812143616221268841e-13 1.246890511177539320e-05
2.505999999999999928e-10 2.330928829758143313e-07 3.107749196951638608e-12 2.212095130576091967e-05
6.294000000000000186e-10 5.854398883216247602e-07 1.363250409771533549e-11 3.761981047239428883e-05
1.581000000000000021e-09 1.470619631082054101e-06 5.726014178088476303e-11 6.095350986710739404e-05
3.971999999999999932e-09 3.694861084648016046e-06 2.210019573374265380e-10 8.628023653304385055e-05
5.000000000000000105e-09 4.651201787816927976e-06 3.071485916280120014e-10 9.387863480799757518e-05
9.975999999999999465e-09 9.280587964640925786e-06 8.385361004129998845e-10 1.356922228656245837e-04
1.989999999999999952e-08 1.851419242998081003e-05 2.287763168863418088e-09 1.782101978513718314e-04
3.972999999999999908e-08 3.696699295748789187e-05 6.061583099087538954e-09 2.308134738384234820e-04
7.925999999999999637e-08 7.375765469301719828e-05 1.575347858094044765e-08 2.960532096713864875e-04
1.580999999999999930e-07 1.471491184379128891e-04 3.910429618672550719e-08 3.402859755131850544e-04
1.991000000000000027e-07 1.853209783927820692e-04 5.252045687899177454e-08 3.626488188833278743e-04
3.155999999999999938e-07 2.938002528823880299e-04 9.730770378831954314e-08 4.630767356912104081e-04
5.000999999999999849e-07 4.656344063839075714e-04 1.837494945860225819e-07 5.430301232045120323e-04
6.295999999999999732e-07 5.862651417037388971e-04 2.503103884558263872e-07 5.605192962670089638e-04
9.666999999999999941e-07 9.003386739730535665e-04 4.324450868778576936e-07 5.993081670211623108e-04
1.531999999999999901e-06 1.427170885631398036e-03 7.780217275717420968e-07 7.125938556504039095e-04
2.506999999999999883e-06 2.336134972129507662e-03 1.471005394641589826e-06 8.121876172121876309e-04
3.974000000000000407e-06 3.704315759716615697e-03 2.695705763844323844e-06 9.780674166779417152e-04
4.830000000000000343e-06 4.502887798316278223e-03 3.503988717694660908e-06 1.046253037768318664e-03
6.080999999999999885e-06 5.670217999231269741e-03 4.731126407333307547e-06 1.056224360839501646e-03
7.930000000000000308e-06 7.396012414119570652e-03 6.599662989063778187e-06 1.109203753630785610e-03
9.982000000000000313e-06 9.311815711689977113e-03 8.879881089227186733e-06 1.271216815433141075e-03
1.256999999999999993e-05 1.172874412604260098e-02 1.207676739913533738e-05 1.374195438212825332e-03
1.521999999999999997e-05 1.420427250933824909e-02 1.547541302213394990e-05 1.371610497379100249e-03
1.991000000000000080e-05 1.858690797761085312e-02 2.160710455847765458e-05 1.426578142835871997e-03
2.506999999999999883e-05 2.341050104039446925e-02 2.908031724375689851e-05 1.672007475975408053e-03
2.790999999999999875e-05 2.606604784714952258e-02 3.357009132255487721e-05 1.709425557744154774e-03
3.806999999999999973e-05 3.556967988784798945e-02 4.986781576435106434e-05 1.720407281314112165e-03
5.063000000000000145e-05 4.732434580343149871e-02 7.073400252905581275e-05 1.829889149838781265e-03
6.592000000000000583e-05 6.164112392498975052e-02 9.765037643900635188e-05 1.930242980462695823e-03
8.433000000000000066e-05 7.888776783401378612e-02 1.317235490470395893e-04 2.021055815200022837e-03
1.062000000000000064e-04 9.938561165478684845e-02 1.740088341640037047e-04 2.104789529260958983e-03
1.321000000000000126e-04 1.236720406455826121e-01 2.260189757651373944e-04 2.178291718403657477e-03
1.623999999999999901e-04 1.520974545104751274e-01 2.888169908545388338e-04 2.240170365918073281e-03
1.689999999999999879e-04 1.582907717069566844e-01 3.027354772999506964e-04 2.254509350360745651e-03
1.758999999999999930e-04 1.647661861691531171e-01 3.173785841705756782e-04 2.268169273277113179e-03
1.830000000000000029e-04 1.714298948183871907e-01 3.325196584577469103e-04 2.276170334580628063e-03
1.901999999999999882e-04 1.781880600978280049e-01 3.479577791899843742e-04 2.292561569242367037e-03
1.977000000000000079e-04 1.852284385240466902e-01 3.641242634600037713e-04 2.299943765467868384e-03
2.054000000000000053e-04 1.924572004474696396e-01 3.808304060475003897e-04 2.322187632288155723e-03
2.079000000000000119e-04 1.948043378760714872e-01 3.864137987380476553e-04 2.435429768083530178e-03
2.081999999999999921e-04 1.950859988578999005e-01 3.870314100985603909e-04 1.950065624557156818e-03
2.090999999999999868e-04 1.959309855029948977e-01 3.881261957135444685e-04 6.411875526909013856e-04
2.159999999999999919e-04 2.024093317906446865e-01 3.940874488768042125e-04 1.199166870571831411e-03
2.231000000000000019e-04 2.090756740932291913e-01 4.013938420547467825e-04 9.928616047829054436e-04
2.311000000000000066e-04 2.165873044433437034e-01 4.085241694843774404e-04 9.056166966301716637e-04
2.401000000000000085e-04 2.250381721984245909e-01 4.159700687886608468e-04 8.565463878902855599e-04
2.500000000000000052e-04 2.343344406330727658e-01 4.237602369176299592e-04 8.194318812157330018e-04
2.642999999999999733e-04 2.477629128650125634e-01 4.345596643180389446e-04 7.890063723638815647e-04
3.052999999999999941e-04 2.862671839140227270e-01 4.644058706720978241e-04 7.612775562167708662e-04
3.533000000000000224e-04 3.313503829113090826e-01 4.987577676308450197e-04 7.626578558207241024e-04
4.075999999999999871e-04 3.823564017794535141e-01 5.381334366106255759e-04 7.813048116943254948e-04
4.679999999999999915e-04 4.390986251953180042e-01 5.832692638200615834e-04 8.096035963157804938e-04
5.341000000000000261e-04 5.012024644415256081e-01 6.346556894078133086e-04 8.452514814113673558e-04
6.059000000000000366e-04 5.686690698184251325e-01 6.930641302632923034e-04 8.862253587289389486e-04
7.661000000000000275e-04 7.192254882508629654e-01 8.328184776562496576e-04 9.702780530519144065e-04
1.262000000000000101e-03 1.185459127778160093e+00 1.338484980802662205e-03 1.198863597978450275e-03
1.894999999999999983e-03 1.780909071169781921e+00 2.123481960401060308e-03 1.437771491635827115e-03
2.673000000000000029e-03 2.513147344746868850e+00 3.261860252001994032e-03 1.671524566936786766e-03
3.605999999999999830e-03 3.391736073717691369e+00 4.828136641022434151e-03 1.893900408978071038e-03
4.709999999999999777e-03 4.431905410739045870e+00 6.903512974832482635e-03 2.096551352830673849e-03
7.496000000000000059e-03 7.058993649504918366e+00 1.289742191321638018e-02 2.466596387205546859e-03
1.119999999999999989e-02 1.055540362104863661e+01 2.212077014004794340e-02 2.809304433764861584e-03
1.600000000000000033e-02 1.509117352747679952e+01 3.559566804390756900e-02 3.132325055719984222e-03
2.206999999999999934e-02 2.083310616724802244e+01 5.457322122755020599e-02 3.477840948757840792e-03
2.947999999999999926e-02 2.785007348564149154e+01 8.049103664263126956e-02 3.909302116317729670e-03
4.268000000000000266e-02 4.036707211535221518e+01 1.353887601042819133e-01 4.862066536253286525e-03
6.219999999999999835e-02 5.891246509830522626e+01 2.419691225623893105e-01 6.630786177272363080e-03
7.316999999999999893e-02 6.935151695866235855e+01 3.161896974764099033e-01 7.588671314871411888e-03
7.595999999999999974e-02 7.200836722020332559e+01 3.371250777904805096e-01 8.170805199905812125e-03
7.685877551020407761e-02 7.286441686241019511e+01 3.442167896399745408e-01 8.397644589381478633e-03
7.775755102040816935e-02 7.372055061479707661e+01 3.515109886763821967e-01 8.642203418115782659e-03
7.865632653061224722e-02 7.457676993154480272e+01 3.590225870832766675e-01 8.903753070002769568e-03
7.955510204081632508e-02 7.543307640049323481e+01 3.667658798934118614e-01 9.181564928936500336e-03
8.045387755102040295e-02 7.628947173163810191e+01 3.747545449273667062e-01 9.474910378811027267e-03
8.135265306122449469e-02 7.714595774614090828e+01 3.830016427295461212e-01 9.783060803520404400e-03
8.225142857142857256e-02 7.800253636582394279e+01 3.915196164977839954e-01 1.010528758695867710e-02
8.315020408163265042e-02 7.885920960312351724e+01 4.003202920031910250e-01 1.044086211301990808e-02
8.404897959183672829e-02 7.971597955147672110e+01 4.094148774972533045e-01 1.078905576559814443e-02
8.494775510204082003e-02 8.057284837611872774e+01 4.188139636035337343e-01 1.114913992858745061e-02
8.584653061224489790e-02 8.142981830526755971e+01 4.285275231916416683e-01 1.152038598588186330e-02
8.674530612244897576e-02 8.228689162167732718e+01 4.385649112314383702e-01 1.190206532137544522e-02
8.764408163265305363e-02 8.314407065453971768e+01 4.489348646257150799e-01 1.229344931896225041e-02
8.854285714285714537e-02 8.400135777171556128e+01 4.596455020198460528e-01 1.269380936253633636e-02
8.944163265306122323e-02 8.485875537228044152e+01 4.707043235871546938e-01 1.310241683599174499e-02
9.034040816326530110e-02 8.571626587936684416e+01 4.821182107889614432e-01 1.351854312322253379e-02
9.123918367346939284e-02 8.657389173328942888e+01 4.938934261084880761e-01 1.394145960812276548e-02
9.213795918367347071e-02 8.743163538493784870e+01 5.060356127579948016e-01 1.437043767458648022e-02
9.303673469387754857e-02 8.828949928942475367e+01 5.185497943587130676e-01 1.480474870650773725e-02
9.393551020408162644e-02 8.914748589997597605e+01 5.314403745933053980e-01 1.524366408778059234e-02
9.483428571428570431e-02 9.000559766205068968e+01 5.447111368307541168e-01 1.568645520229909260e-02
9.573306122448979605e-02 9.086383700768168126e+01 5.583652437237299759e-01 1.613239343395730246e-02
9.663183673469387391e-02 9.172220635002325650e+01 5.724052367786368611e-01 1.658075016664926210e-02
9.753061224489795178e-02 9.258070807809853875e+01 5.868330358986696416e-01 1.703079678426902902e-02
9.842938775510204352e-02 9.343934455173588560e+01 6.016499389003413523e-01 1.748180467071066765e-02
9.932816326530612139e-02 9.429811809668542821e+01 6.168566210040659081e-01 1.793304520986821818e-02
1.002269387755101993e-01 9.515703099990818714e+01 6.324531342994942351e-01 1.838378978563573463e-02
1.011257142857142910e-01 9.601608550502901096e+01 6.484389071864052889e-01 1.883330978190728144e-02
1.020244897959183689e-01 9.687528380794556426e+01 6.648127437920605676e-01 1.928087658257689879e-02
1.029232653061224467e-01 9.773462805258787967e+01 6.815728233660288682e-01 1.972576157153863724e-02
1.038220408163265246e-01 9.859412032681983362e+01 6.987166996535709718e-01 2.016723613268657164e-02
1.047208163265306025e-01 9.945376265847725961e+01 7.162413002487707514e-01 2.060457164991473522e-02
1.056195918367346942e-01 1.003135570115363322e+02 7.341429259286752496e-01 2.103703950711720283e-02
1.065183673469387721e-01 1.011735052824072199e+02 7.524172499697857619e-01 2.146391108818799728e-02
1.074171428571428499e-01 1.020336092963457020e+02 7.710593174483196810e-01 2.188445777702118997e-02
1.083159183673469417e-01 1.028938708039808176e+02 7.900635445257269129e-01 2.229795095751084186e-02
1.092146938775510195e-01 1.037542914779498062e+02 8.094237177210171774e-01 2.270366201355098965e-02
1.101134693877550974e-01 1.046148729096391179e+02 8.291329931715205603e-01 2.310086232903569431e-02
1.110122448979591891e-01 1.054756166060256390e+02 8.491838958837556461e-01 2.348882328785901683e-02
1.119110204081632531e-01 1.063365239866133294e+02 8.695683189761467258e-01 2.386681627391499388e-02
1.128097959183673449e-01 1.071975963804627696e+02 8.902775229153881975e-01 2.423411267109769340e-02
1.137085714285714227e-01 1.080588350233093280e+02 9.113021347482929135e-01 2.458998386330115554e-02
1.146073469387755006e-01 1.089202410547661088e+02 9.326321473310363874e-01 2.493370123441945169e-02
1.155061224489795924e-01 1.097818155156086135e+02 9.542569185577330915e-01 2.526453616834662547e-02
1.164048979591836702e-01 1.106435593451377315e+02 9.761651705903420240e-01 2.558176004897672745e-02
1.173036734693877481e-01 1.115054733786189587e+02 9.983449890919441350e-01 2.588464426020380821e-02
1.182024489795918398e-01 1.123675583447932809e+02 1.020783822465465063e+00 2.617246018592192525e-02
1.191012244897959177e-01 1.132298148634588131e+02 1.043468481099969258e+00 2.644447921002514995e-02
1.199999999999999956e-01 1.140922434431190595e+02 1.066385136626690322e+00 2.669997271640749820e-02
1.231397757418211808e-01 1.171064047930244669e+02 1.148078714973643555e+00 2.750632547456819191e-02
1.262795514836423660e-01 1.201226812040682432e+02 1.232292875612908567e+00 2.833327453826584713e-02
1.294193272254635652e-01 1.231410835894384945e+02 1.319094920221437706e+00 2.918172426146399198e-02
1.325591029672847643e-01 1.261616240013092352e+02 1.408555100120596038e+00 3.005259394051901234e-02
1.356988787091059356e-01 1.291843156204683396e+02 1.500746676400877000e+00 3.094681916362406610e-02
1.388386544509271348e-01 1.322091727483507100e+02 1.595745984754673108e+00 3.186535319858471021e-02
1.419784301927483339e-01 1.352362108013136321e+02 1.693632505170285629e+00 3.280916841269223422e-02
1.451182059345695052e-01 1.382654463070152815e+02 1.794488936623519493e+00 3.377925771826458673e-02
1.482579816763907044e-01 1.412968969027772346e+02 1.898401276886731104e+00 3.477663603785966645e-02
1.513977574182118757e-01 1.443305813358315959e+02 2.005458907559853010e+00 3.580234178342928814e-02
1.545375331600330748e-01 1.473665194653659967e+02 2.115754684413480025e+00 3.685743834396030399e-02
1.576773089018542739e-01 1.504047322662919726e+02 2.229385033120458548e+00 3.794301557640477468e-02
1.608170846436754453e-01 1.534452418346733964e+02 2.346450050439695456e+00 3.906019129493301656e-02
1.639568603854966444e-01 1.564880713947600555e+02 2.467053610903821692e+00 4.021011275374484356e-02
1.670966361273178435e-01 1.595332453075781132e+02 2.591303479050951708e+00 4.139395811884350601e-02
1.702364118691390149e-01 1.625807890810355616e+02 2.719311427229976097e+00 4.261293792431895822e-02
1.733761876109602140e-01 1.656307293815058870e+02 2.851193358998425964e+00 4.386829650879358472e-02
1.765159633527814131e-01 1.686830940468573772e+02 2.987069438121979115e+00 4.516131342776560226e-02
1.796557390946025845e-01 1.717379121008999334e+02 3.127064223175020086e+00 4.649330483763633448e-02
1.827955148364237836e-01 1.747952137692214762e+02 3.271306807732173194e+00 4.786562484722649974e-02
1.859352905782449827e-01 1.778550304963918336e+02 3.419930966131481842e+00 4.927966683265291858e-02
1.890750663200661541e-01 1.809173949645127664e+02 3.573075304780607198e+00 5.073686471124175257e-02
1.922148420618873532e-01 1.839823411130923603e+02 3.730883418968243159e+00 5.223869417040676033e-02
1.953546178037085523e-01 1.870499041602268164e+02 3.893504055133767849e+00 5.378667384709493599e-02
1.984943935455297237e-01 1.901201206250705695e+02 4.061091278538781602e+00 5.538236645349643023e-02
2.016341692873509228e-01 1.931930283515795281e+02 4.233804646274753836e+00 5.702737984459050474e-02
2.047739450291721219e-01 1.962686665335073144e+02 4.411809385531401340e+00 5.872336802302061814e-02
2.079137207709932933e-01 1.993470757406435894e+02 4.595276577040671384e+00 6.047203207670284048e-02
2.110534965128144924e-01 2.024282979462714991e+02 4.784383343601167127e+00 6.227512104447478075e-02
2.141932722546356915e-01 2.055123765558355160e+02 4.979313043577611175e+00 6.413443270499409599e-02
2.173330479964568629e-01 2.085993564367970237e+02 5.180255469259500423e+00 6.605181428399901911e-02
2.204728237382780620e-01 2.116892839496646275e+02 5.387407049952318339e+00 6.802916307494408232e-02
2.236125994800992611e-01 2.147822069801796090e+02 5.600971059663630847e+00 7.006842696793275094e-02
2.267523752219204325e-01 2.178781749726413750e+02 5.821157829235172443e+00 7.217160488177924715e-02
2.298921509637416316e-01 2.209772389643524662e+02 6.048184962760460692e+00 7.434074709399035585e-02
2.330319267055628307e-01 2.240794516211641678e+02 6.282277558115369587e+00 7.657795546311883805e-02
2.361717024473840021e-01 2.271848672741032260e+02 6.523668431417570801e+00 7.888538353867509401e-02
2.393114781892052012e-01 2.302935419570593751e+02 6.772598345218113991e+00 8.126523655241724153e-02
2.424512539310264003e-01 2.334055334455098034e+02 7.029316240215540468e+00 8.371977128611421404e-02
2.455910296728475717e-01 2.365209012962581312e+02 7.294079470270756538e+00 8.625129581007977275e-02
2.487308054146687708e-01 2.396397068881670407e+02 7.567154040487593214e+00 8.886216908702847250e-02
2.518705811564899699e-01 2.427620134638513889e+02 7.848814848110903242e+00 9.155480043578929916e-02
2.550103568983111413e-01 2.458878861723146656e+02 8.139345925980856933e+00 9.433164884944739148e-02
2.581501326401323126e-01 2.490173921124935248e+02 8.439040688268654833e+00 9.719522216254410096e-02
2.612899083819535395e-01 2.521506003776831335e+02 8.748202178205417567e+00 1.001480760620460791e-01
2.644296841237747109e-01 2.552875821008144044e+02 9.067143317502493360e+00 1.031928129368996222e-01
2.675694598655958822e-01 2.584284105005482388e+02 9.396187157147920743e+00 1.063320805611145115e-01
2.707092356074171091e-01 2.615731609281545502e+02 9.735667129250099805e+00 1.095685706054756181e-01
2.738490113492382805e-01 2.647219109151400858e+02 1.008592729958628986e+01 1.129050169731610487e-01
3.498929090768048145e-01 3.431747833704604318e+02 2.971282194787073649e+01 3.780533594549316811e-01
4.259368068043714040e-01 4.279086912528241555e+02 7.068286797379113295e+01 5.763297463746102078e-01
5.019807045319379935e-01 5.211213690718556109e+02 1.171936172858903547e+02 4.314451956471064276e-01
5.780246022595045829e-01 6.208125020397523031e+02 1.579055767566223949e+02 3.875624274641014666e-01
6.540684999870711724e-01 7.259992404137550466e+02 2.037601144427718509e+02 4.810937115645262940e-01
7.301123977146376509e-01 8.372153294781360273e+02 2.625572544527996683e+02 5.726091518653080303e-01
8.061562954422041294e-01 9.552222622985700582e+02 3.341707327022693335e+02 6.383216962756246282e-01
8.822001931697707189e-01 1.080548924474364185e+03 4.184744754396522239e+02 7.040342406859412261e-01
9.582440908973373084e-01 1.213712730613764506e+03 5.168144140652076430e+02 7.697467850962578240e-01
1.034287988624903898e+00 1.355260413764355235e+03 6.306623027430183583e+02 8.354593295065745329e-01
1.110331886352470487e+00 1.505771166773414279e+03 7.616261780320277239e+02 9.011718739168912418e-01
1.186375784080037077e+00 1.665754591738467525e+03 8.914007149918759296e+02 7.297248492135097742e-01
1.262419681807603666e+00 1.833430734004522037e+03 1.008410100422423398e+03 6.683570401532522576e-01
1.338463579535170034e+00 2.007984995867999942e+03 1.119543215298354653e+03 6.069892310929949630e-01
1.414507477262736623e+00 2.188654150124539228e+03 1.223514571418483456e+03 5.456214220327375575e-01
1.490551374990303213e+00 2.374692085711476466e+03 1.319187679028130788e+03 4.842536129724800409e-01
1.566595272717869802e+00 2.565374755548016765e+03 1.405573210116130440e+03 4.228858039122225798e-01
1.642639170445436392e+00 2.760004020397465865e+03 1.481825184090549328e+03 3.615179948519651187e-01
1.718683068173002981e+00 2.957910564931427871e+03 1.547235645861922649e+03 3.001501857917076022e-01
1.794726965900569571e+00 3.158456034090402227e+03 1.601228222006403030e+03 2.387823767314501411e-01
1.870770863628135938e+00 3.361034514873620537e+03 1.643350871447470354e+03 1.774145676711929021e-01
1.946814761355702528e+00 3.565073469728447890e+03 1.673268089912944333e+03 1.160467586109353855e-01
2.022858659083269117e+00 3.770034211914776279e+03 1.690752779962705290e+03 5.467894955067786888e-02
2.098902556810835929e+00 3.975816307679402598e+03 1.720247606484039352e+03 2.314528482069975746e-01
