# density  energy_density  pressure   sound_speed_squared  [All in nuclear units]
2.720000000000000022e-14 2.529924618736292620e-11 1.061056609100270887e-19 3.766610435412189122e-08
1.269999999999999890e-13 1.181251617980081254e-10 4.870113551826584858e-18 6.497781477172163475e-08
6.929999999999999754e-13 6.445728594625782745e-10 1.018299070687946017e-16 3.033770597342807186e-07
6.295000000000000137e-12 5.855111460395753757e-09 5.487150723824490656e-15 1.763710043904196507e-06
1.581000000000000150e-11 1.470523320212576141e-08 2.904239460150760759e-14 3.559434472327477622e-06
3.971999999999999958e-11 3.694456170323160790e-08 1.439340266754906811e-13 6.772854871245677111e-06
9.975999999999999982e-11 9.278976412613005154e-08 6.812143616221268841e-13 1.246890511177539320e-05
2.505999999999999928e-10 2.330928829758143313e-07 3.107749196951638608e-12 2.212095130576091967e-05
6.294000000000000186e-10 5.854398883216247602e-07 1.363250409771533549e-11 3.761981047239428883e-05
1.581000000000000021e-09 1.470619631082054101e-06 5.726014178088476303e-11 6.095350986710739404e-05
3.971999999999999932e-09 3.694861084648016046e-06 2.210019573374265380e-10 8.628023653304385055e-05
5.000000000000000105e-09 4.651201787816927976e-06 3.071485916280120014e-10 9.387863480799757518e-05
9.975999999999999465e-09 9.280587964640925786e-06 8.385361004129998845e-10 1.356922228656245837e-04
1.989999999999999952e-08 1.851419242998081003e-05 2.287763168863418088e-09 1.782101978513718314e-04
3.972999999999999908e-08 3.696699295748789187e-05 6.061583099087538954e-09 2.308134738384234820e-04
7.925999999999999637e-08 7.375765469301719828e-05 1.575347858094044765e-08 2.960532096713864875e-04
1.580999999999999930e-07 1.471491184379128891e-04 3.910429618672550719e-08 3.402859755131850544e-04
1.991000000000000027e-07 1.853209783927820692e-04 5.252045687899177454e-08 3.626488188833278743e-04
3.155999999999999938e-07 2.938002528823880299e-04 9.730770378831954314e-08 4.630767356912104081e-04
5.000999999999999849e-07 4.656344063839075714e-04 1.837494945860225819e-07 5.430301232045120323e-04
6.295999999999999732e-07 5.862651417037388971e-04 2.503103884558263872e-07 5.605192962670089638e-04
9.666999999999999941e-07 9.003386739730535665e-04 4.324450868778576936e-07 5.993081670211623108e-04
1.531999999999999901e-06 1.427170885631398036e-03 7.780217275717420968e-07 7.125938556504039095e-04
2.506999999999999883e-06 2.336134972129507662e-03 1.471005394641589826e-06 8.121876172121876309e-04
3.974000000000000407e-06 3.704315759716615697e-03 2.695705763844323844e-06 9.780674166779417152e-04
4.830000000000000343e-06 4.502887798316278223e-03 3.503988717694660908e-06 1.046253037768318664e-03
6.080999999999999885e-06 5.670217999231269741e-03 4.731126407333307547e-06 1.056224360839501646e-03
7.930000000000000308e-06 7.396012414119570652e-03 6.599662989063778187e-06 1.109203753630785610e-03
9.982000000000000313e-06 9.311815711689977113e-03 8.879881089227186733e-06 1.271216815433141075e-03
1.256999999999999993e-05 1.172874412604260098e-02 1.207676739913533738e-05 1.374195438212825332e-03
1.521999999999999997e-05 1.420427250933824909e-02 1.547541302213394990e-05 1.371610497379100249e-03
1.991000000000000080e-05 1.858690797761085312e-02 2.160710455847765458e-05 1.426578142835871997e-03
2.506999999999999883e-05 2.341050104039446925e-02 2.908031724375689851e-05 1.672007475975408053e-03
2.790999999999999875e-05 2.606604784714952258e-02 3.357009132255487721e-05 1.709425557744154774e-03
3.806999999999999973e-05 3.556967988784798945e-02 4.986781576435106434e-05 1.720407281314112165e-03
5.063000000000000145e-05 4.732434580343149871e-02 7.073400252905581275e-05 1.829889149838781265e-03
6.592000000000000583e-05 6.164112392498975052e-02 9.765037643900635188e-05 1.930242980462695823e-03
8.433000000000000066e-05 7.888776783401378612e-02 1.317235490470395893e-04 2.021055815200022837e-03
1.062000000000000064e-04 9.938561165478684845e-02 1.740088341640037047e-04 2.104789529260958983e-03
1.321000000000000126e-04 1.236720406455826121e-01 2.260189757651373944e-04 2.178291718403657477e-03
1.623999999999999901e-04 1.520974545104751274e-01 2.888169908545388338e-04 2.240170365918073281e-03
1.689999999999999879e-04 1.582907717069566844e-01 3.027354772999506964e-04 2.254509350360745651e-03
1.758999999999999930e-04 1.647661861691531171e-01 3.173785841705756782e-04 2.268169273277113179e-03
1.830000000000000029e-04 1.714298948183871907e-01 3.325196584577469103e-04 2.276170334580628063e-03
1.901999999999999882e-04 1.781880600978280049e-01 3.479577791899843742e-04 2.292561569242367037e-03
1.977000000000000079e-04 1.852284385240466902e-01 3.641242634600037713e-04 2.299943765467868384e-03
2.054000000000000053e-04 1.924572004474696396e-01 3.808304060475003897e-04 2.322187632288155723e-03
2.079000000000000119e-04 1.948043378760714872e-01 3.864137987380476553e-04 2.435429768083530178e-03
2.081999999999999921e-04 1.950859988578999005e-01 3.870314100985603909e-04 1.950065624557156818e-03
2.090999999999999868e-04 1.959309855029948977e-01 3.881261957135444685e-04 6.411875526909013856e-04
2.159999999999999919e-04 2.024093317906446865e-01 3.940874488768042125e-04 1.199166870571831411e-03
2.231000000000000019e-04 2.090756740932291913e-01 4.013938420547467825e-04 9.928616047829054436e-04
2.311000000000000066e-04 2.165873044433437034e-01 4.085241694843774404e-04 9.056166966301716637e-04
2.401000000000000085e-04 2.250381721984245909e-01 4.159700687886608468e-04 8.565463878902855599e-04
2.500000000000000052e-04 2.343344406330727658e-01 4.237602369176299592e-04 8.194318812157330018e-04
2.642999999999999733e-04 2.477629128650125634e-01 4.345596643180389446e-04 7.890063723638815647e-04
3.052999999999999941e-04 2.862671839140227270e-01 4.644058706720978241e-04 7.612775562167708662e-04
3.533000000000000224e-04 3.313503829113090826e-01 4.987577676308450197e-04 7.626578558207241024e-04
4.075999999999999871e-04 3.823564017794535141e-01 5.381334366106255759e-04 7.813048116943254948e-04
4.679999999999999915e-04 4.390986251953180042e-01 5.832692638200615834e-04 8.096035963157804938e-04
5.341000000000000261e-04 5.012024644415256081e-01 6.346556894078133086e-04 8.452514814113673558e-04
6.059000000000000366e-04 5.686690698184251325e-01 6.930641302632923034e-04 8.862253587289389486e-04
7.661000000000000275e-04 7.192254882508629654e-01 8.328184776562496576e-04 9.702780530519144065e-04
1.262000000000000101e-03 1.185459127778160093e+00 1.338484980802662205e-03 1.198863597978450275e-03
1.894999999999999983e-03 1.780909071169781921e+00 2.123481960401060308e-03 1.437771491635827115e-03
2.673000000000000029e-03 2.513147344746868850e+00 3.261860252001994032e-03 1.671524566936786766e-03
3.605999999999999830e-03 3.391736073717691369e+00 4.828136641022434151e-03 1.893900408978071038e-03
4.709999999999999777e-03 4.431905410739045870e+00 6.903512974832482635e-03 2.096551352830673849e-03
7.496000000000000059e-03 7.058993649504918366e+00 1.289742191321638018e-02 2.466596387205546859e-03
1.119999999999999989e-02 1.055540362104863661e+01 2.212077014004794340e-02 2.809304433764861584e-03
1.600000000000000033e-02 1.509117352747679952e+01 3.559566804390756900e-02 3.132325055719984222e-03
2.206999999999999934e-02 2.083310616724802244e+01 5.457322122755020599e-02 3.477840948757840792e-03
2.947999999999999926e-02 2.785007348564149154e+01 8.049103664263126956e-02 3.909302116317729670e-03
4.268000000000000266e-02 4.036707211535221518e+01 1.353887601042819133e-01 4.862066536253286525e-03
6.219999999999999835e-02 5.891246509830522626e+01 2.419691225623893105e-01 6.630786177272363080e-03
7.316999999999999893e-02 6.935151695866235855e+01 3.161896974764099033e-01 7.588671314871411888e-03
7.595999999999999974e-02 7.200836722020332559e+01 3.371250777904805096e-01 8.170805199905812125e-03
7.685877551020407761e-02 7.286441675361484727e+01 3.441981710274072959e-01 8.354149933223599042e-03
7.775755102040816935e-02 7.372054989276715276e+01 3.514244124465897845e-01 8.526959126839187345e-03
7.865632653061224722e-02 7.457676739126875987e+01 3.587950742729262288e-01 8.689832304605980828e-03
7.955510204081632508e-02 7.543306988867145435e+01 3.663019388957572953e-01 8.843368990377405842e-03
8.045387755102040295e-02 7.628945792010090088e+01 3.739372990460992363e-01 8.988168708006869650e-03
8.135265306122449469e-02 7.714593192546008993e+01 3.816939579909386926e-01 9.124830981347791664e-03
8.225142857142857256e-02 7.800249225822730637e+01 3.895652297419636145e-01 9.253955334253580883e-03
8.315020408163265042e-02 7.885913919387252236e+01 3.975449392763815704e-01 9.376141290577654983e-03
8.404897959183672829e-02 7.971587293791192508e+01 4.056274227677272859e-01 9.491988374173424697e-03
8.494775510204082003e-02 8.057269363362046022e+01 4.138075278248017352e-01 9.602096108894312906e-03
8.584653061224489790e-02 8.142960136942046745e+01 4.220806137371021505e-01 9.707064018593721672e-03
8.674530612244897576e-02 8.228659618596374514e+01 4.304425517253120392e-01 9.807491627125070402e-03
8.764408163265305363e-02 8.314367808292224993e+01 4.388897251956073164e-01 9.903978458341780242e-03
8.854285714285714537e-02 8.400084702550296356e+01 4.474190299967181761e-01 9.997124036097260191e-03
8.944163265306122323e-02 8.485810295070106690e+01 4.560278746788509752e-01 1.008752788424492099e-02
9.034040816326530110e-02 8.571544577330422499e+01 4.647141807537344960e-01 1.017578952663818204e-02
9.123918367346939284e-02 8.657287539166010504e+01 4.734763829551974501e-01 1.026250848713045581e-02
9.213795918367347071e-02 8.743039169321983195e+01 4.823134294998248084e-01 1.034828428957515825e-02
9.303673469387754857e-02 8.828799455986732880e+01 4.912247823473706032e-01 1.043371645782569836e-02
9.393551020408162644e-02 8.914568387304494479e+01 5.002104174607215903e-01 1.051940451573549727e-02
9.483428571428570431e-02 9.000345951868604288e+01 5.092708250653245061e-01 1.060594798715796573e-02
9.573306122448979605e-02 9.086132139196243429e+01 5.184070099080941851e-01 1.069394639594651968e-02
9.663183673469387391e-02 9.171926940185603883e+01 5.276204915159207198e-01 1.078399926595457331e-02
9.753061224489795178e-02 9.257730347556324091e+01 5.369133044539902144e-01 1.087670612103553563e-02
9.842938775510204352e-02 9.343542356273874816e+01 5.462879985842200581e-01 1.097266648504283473e-02
9.932816326530612139e-02 9.429362963958720911e+01 5.557476393241949086e-01 1.107247988182986920e-02
1.002269387755101993e-01 9.515192171280868649e+01 5.652958079070725672e-01 1.117674583525006017e-02
1.011257142857142910e-01 9.601029982340526203e+01 5.749366016429962034e-01 1.128606386915682533e-02
1.020244897959183689e-01 9.686876405035420134e+01 5.846746341826265514e-01 1.140103350740357194e-02
1.029232653061224467e-01 9.772731451415492643e+01 5.945150357834740884e-01 1.152225427384371767e-02
1.038220408163265246e-01 9.858595138025297899e+01 6.044634535797686059e-01 1.165032569233067847e-02
1.047208163265306025e-01 9.944467486234921694e+01 6.145260518566718622e-01 1.178584728671786680e-02
1.056195918367346942e-01 1.003034852255966456e+02 6.247095123296887431e-01 1.192941858085870208e-02
1.065183673469387721e-01 1.011623827896917192e+02 6.350210344301889798e-01 1.208163909860658983e-02
1.074171428571428499e-01 1.020213679318627982e+02 6.454683355980044279e-01 1.224310836381494946e-02
1.083159183673469417e-01 1.028804410897621153e+02 6.560596515821099928e-01 1.241442590033719519e-02
1.092146938775510195e-01 1.037396027642632959e+02 6.668037367504459079e-01 1.259619123202674121e-02
1.101134693877550974e-01 1.045988535221701170e+02 6.777098644099848190e-01 1.278900388273699826e-02
1.110122448979591891e-01 1.054581939988389792e+02 6.887878271381819850e-01 1.299346337632138748e-02
1.119110204081632531e-01 1.063176249007191245e+02 7.000479371269914264e-01 1.321016923663331788e-02
1.128097959183673449e-01 1.071771470078150088e+02 7.115010265406707113e-01 1.343972098752620886e-02
1.137085714285714227e-01 1.080367611760715505e+02 7.231584478886224909e-01 1.368271815285346596e-02
1.146073469387755006e-01 1.088964683396882407e+02 7.350320744145707463e-01 1.393976025646850858e-02
1.155061224489795924e-01 1.097562695133634634e+02 7.471343005033875828e-01 1.421144682222475614e-02
1.164048979591836702e-01 1.106161657944715131e+02 7.594780421069263765e-01 1.449837737397561763e-02
1.173036734693877481e-01 1.114761583651769570e+02 7.720767371902461651e-01 1.480115143557450726e-02
1.182024489795918398e-01 1.123362484944864548e+02 7.849443461996374882e-01 1.512036853087484617e-02
1.191012244897959177e-01 1.131964375402426128e+02 7.980953525538895255e-01 1.545662818373003469e-02
1.199999999999999956e-01 1.140567269510611794e+02 8.115447631602678014e-01 1.581052991799349744e-02
1.209930597116159329e-01 1.150073818679455115e+02 8.267695467109963392e-01 1.621954035150598855e-02
1.219861194232318563e-01 1.159581633586939233e+02 8.423888146970968105e-01 1.663607590288282770e-02
1.229791791348477936e-01 1.169090736340718024e+02 8.584098937947911567e-01 1.706019804812840962e-02
1.239722388464637309e-01 1.178601149285640020e+02 8.748401753617135457e-01 1.749196846972777761e-02
1.249652985580796682e-01 1.188112895003250458e+02 8.916871158059039848e-01 1.793144905478534154e-02
1.259583582696955917e-01 1.197625996311328862e+02 9.089582369562795305e-01 1.837870189304359470e-02
1.269514179813115429e-01 1.207140476263472095e+02 9.266611264345143706e-01 1.883378927478814371e-02
1.279444776929274663e-01 1.216656358148726440e+02 9.448034380282519518e-01 1.929677368863804907e-02
1.289375374045433897e-01 1.226173665491249238e+02 9.633928920655889794e-01 1.976771781922326277e-02
1.299305971161593409e-01 1.235692422050022117e+02 9.824372757907546827e-01 2.024668454475360771e-02
1.309236568277752644e-01 1.245212651818589364e+02 1.001944443740923951e+00 2.073373693447799759e-02
1.319167165393911878e-01 1.254734379024841786e+02 1.021922318124106388e+00 2.122893824603787338e-02
1.329097762510071390e-01 1.264257628130833666e+02 1.042378889198040115e+00 2.173235192271467248e-02
1.339028359626230624e-01 1.273782423832628297e+02 1.063322215650033264e+00 2.224404159057466815e-02
1.348958956742389859e-01 1.283308791060185854e+02 1.084760424977703419e+00 2.276407105551098153e-02
1.358889553858549371e-01 1.292836754977273017e+02 1.106701713870543058e+00 2.329250430018498658e-02
1.368820150974708605e-01 1.302366340981410247e+02 1.129154348592265267e+00 2.382940548086925903e-02
1.378750748090868117e-01 1.311897574703841087e+02 1.152126665363877978e+00 2.437483892419156986e-02
1.388681345207027351e-01 1.321430482009541834e+02 1.175627070747421232e+00 2.492886912378218175e-02
1.398611942323186585e-01 1.330965088997242844e+02 1.199664042030331945e+00 2.549156073682690149e-02
1.408542539439346097e-01 1.340501421999488514e+02 1.224246127610373547e+00 2.606297858052450747e-02
1.418473136555505332e-01 1.350039507582722251e+02 1.249381947381083435e+00 2.664318762845161587e-02
1.428403733671664844e-01 1.359579372547383969e+02 1.275080193117700933e+00 2.723225300683569314e-02
1.438334330787824078e-01 1.369121043928050199e+02 1.301349628863508912e+00 2.783023999073678048e-02
1.448264927903983312e-01 1.378664548993577910e+02 1.328199091316565550e+00 2.843721400013951572e-02
1.458195525020142824e-01 1.388209915247287540e+02 1.355637490216762941e+00 2.905324059595638941e-02
1.468126122136302059e-01 1.397757170427156836e+02 1.383673808733175914e+00 2.967838547594272777e-02
1.478056719252461293e-01 1.407306342506039698e+02 1.412317103851664424e+00 3.031271447052528642e-02
1.487987316368620805e-01 1.416857459691903500e+02 1.441576506762674459e+00 3.095629353854430568e-02
1.497917913484780039e-01 1.426410550428087163e+02 1.471461223249201700e+00 3.160918876291087670e-02
1.507848510600939274e-01 1.435965643393578830e+02 1.501980534074886187e+00 3.227146634617988896e-02
1.517779107717098785e-01 1.445522767503310035e+02 1.533143795372183149e+00 3.294319260603988803e-02
1.527709704833258020e-01 1.455081951908468056e+02 1.564960439030576911e+00 3.362443397072003431e-02
1.537640301949417254e-01 1.464643225996823901e+02 1.597439973084809894e+00 3.431525697431593580e-02
1.547570899065576766e-01 1.474206619393086442e+02 1.630591982103071880e+00 3.501572825203447259e-02
1.557501496181736000e-01 1.483772161959252287e+02 1.664426127575119985e+00 3.572591453535830380e-02
1.567432093297895235e-01 1.493339883794991465e+02 1.698952148300303611e+00 3.644588264713176373e-02
1.577362690414054747e-01 1.502909815238044189e+02 1.734179860775440174e+00 3.717569949656786971e-02
1.587293287530213981e-01 1.512481986864615919e+02 1.770119159582515644e+00 3.791543207417780864e-02
1.597223884646373493e-01 1.522056429489809943e+02 1.806780017776184799e+00 3.866514744662364472e-02
1.607154481762532727e-01 1.531633174168054268e+02 1.844172487271014349e+00 3.942491275149468538e-02
1.617085078878692239e-01 1.541212252193559777e+02 1.882306699228463609e+00 4.019479519200873374e-02
1.627015675994851474e-01 1.550793695100767593e+02 1.921192864443540982e+00 4.097486203163840102e-02
1.636946273111010708e-01 1.560377534664834229e+02 1.960841273731132484e+00 4.176518058866383887e-02
1.646876870227170220e-01 1.569963802902112491e+02 2.001262298311947241e+00 4.256581823065206521e-02
1.656807467343329454e-01 1.579552532070643167e+02 2.042466390198057535e+00 4.337684236886375083e-02
1.666738064459488688e-01 1.589143754670673729e+02 2.084464082578012523e+00 4.419832045258891007e-02
1.676668661575648200e-01 1.598737503445167363e+02 2.127265990201475443e+00 4.503031996341074622e-02
1.686599258691807435e-01 1.608333811380334168e+02 2.170882809763364563e+00 4.587290840939994147e-02
2.468505396269525809e-01 2.391879851502827137e+02 1.893681851254704895e+01 3.677185294380965197e-01
3.250411533847243906e-01 3.253979223612618625e+02 4.974523708951264211e+01 3.496286216473539765e-01
4.032317671424962002e-01 4.189582825104256472e+02 7.824651194829250755e+01 2.639794824639607462e-01
4.814223809002680099e-01 5.174348471053206140e+02 9.991234719950777787e+01 1.783303432805675437e-01
5.596129946580398196e-01 6.188043611838620564e+02 1.135948291210081607e+02 9.268120409717434116e-02
6.378036084158117403e-01 7.229902860162624165e+02 1.519460104155388649e+02 6.266741142944057819e-01
7.159942221735835499e-01 8.344503305373316380e+02 2.280658741475853617e+02 7.327385787663154293e-01
7.941848359313553596e-01 9.551771812753347604e+02 3.233701437018643787e+02 8.388030432382249657e-01
8.723754496891271693e-01 1.086279149397095807e+03 4.408274024388084058e+02 9.448675077101346131e-01
9.505660634468989789e-01 1.228113139210455302e+03 5.258530167257663379e+02 2.822618808379016575e-01
1.028756677204670789e+00 1.373985505998062763e+03 5.652854965959088531e+02 2.587713230909039486e-01
1.106947290962442709e+00 1.522756716641898038e+03 6.020123386681989359e+02 2.352807653439061841e-01
1.185137904720214408e+00 1.674022175360087203e+03 6.358061700508486638e+02 2.117902075969085030e-01
1.263328518477986329e+00 1.827416973967631293e+03 6.664762028093114168e+02 1.882996498499107663e-01
1.341519132235758027e+00 1.982610625939752936e+03 6.938635443380782135e+02 1.648090921029130573e-01
1.419709745993529948e+00 2.139302780997519221e+03 7.178372850102218763e+02 1.413185343559152929e-01
1.497900359751301869e+00 2.297219687369171425e+03 7.382911919000121088e+02 1.178279766089175284e-01
1.576090973509073567e+00 2.456217564612074966e+03 7.598809241497098128e+02 1.536120759802996616e-01
1.654281587266845488e+00 2.616507205579116999e+03 7.915039244297370260e+02 2.404796056285223305e-01
1.732472201024617187e+00 2.778613246145474477e+03 8.375851391631002798e+02 3.273471352767447495e-01
1.810662814782389107e+00 2.943049200164788090e+03 8.936396149745269213e+02 3.541942762738700679e-01
1.888853428540160806e+00 3.109981121574824556e+03 9.522613608373841316e+02 3.482408028173787362e-01
1.967044042297932727e+00 3.279337308975893393e+03 1.010726780501650069e+03 3.422873293608874046e-01
2.045234656055704647e+00 3.451013859677445907e+03 1.068971712230523735e+03 3.363338559043960729e-01
