# density  energy_density  pressure   sound_speed_squared  [All in nuclear units]
2.720000000000000022e-14 2.529924618736292620e-11 1.061056609100270887e-19 3.766610435412189122e-08
1.269999999999999890e-13 1.181251617980081254e-10 4.870113551826584858e-18 6.497781477172163475e-08
6.929999999999999754e-13 6.445728594625782745e-10 1.018299070687946017e-16 3.033770597342807186e-07
6.295000000000000137e-12 5.855111460395753757e-09 5.487150723824490656e-15 1.763710043904196507e-06
1.581000000000000150e-11 1.470523320212576141e-08 2.904239460150760759e-14 3.559434472327477622e-06
3.971999999999999958e-11 3.694456170323160790e-08 1.439340266754906811e-13 6.772854871245677111e-06
9.975999999999999982e-11 9.278976412613005154e-08 6.812143616221268841e-13 1.246890511177539320e-05
2.505999999999999928e-10 2.330928829758143313e-07 3.107749196951638608e-12 2.212095130576091967e-05
6.294000000000000186e-10 5.854398883216247602e-07 1.363250409771533549e-11 3.761981047239428883e-05
1.581000000000000021e-09 1.470619631082054101e-06 5.726014178088476303e-11 6.095350986710739404e-05
3.971999999999999932e-09 3.694861084648016046e-06 2.210019573374265380e-10 8.628023653304385055e-05
5.000000000000000105e-09 4.651201787816927976e-06 3.071485916280120014e-10 9.387863480799757518e-05
9.975999999999999465e-09 9.280587964640925786e-06 8.385361004129998845e-10 1.356922228656245837e-04
1.989999999999999952e-08 1.851419242998081003e-05 2.287763168863418088e-09 1.782101978513718314e-04
3.972999999999999908e-08 3.696699295748789187e-05 6.061583099087538954e-09 2.308134738384234820e-04
7.925999999999999637e-08 7.375765469301719828e-05 1.575347858094044765e-08 2.960532096713864875e-04
1.580999999999999930e-07 1.471491184379128891e-04 3.910429618672550719e-08 3.402859755131850544e-04
1.991000000000000027e-07 1.853209783927820692e-04 5.252045687899177454e-08 3.626488188833278743e-04
3.155999999999999938e-07 2.938002528823880299e-04 9.730770378831954314e-08 4.630767356912104081e-04
5.000999999999999849e-07 4.656344063839075714e-04 1.837494945860225819e-07 5.430301232045120323e-04
6.295999999999999732e-07 5.862651417037388971e-04 2.503103884558263872e-07 5.605192962670089638e-04
9.666999999999999941e-07 9.003386739730535665e-04 4.324450868778576936e-07 5.993081670211623108e-04
1.531999999999999901e-06 1.427170885631398036e-03 7.780217275717420968e-07 7.125938556504039095e-04
2.506999999999999883e-06 2.336134972129507662e-03 1.471005394641589826e-06 8.121876172121876309e-04
3.974000000000000407e-06 3.704315759716615697e-03 2.695705763844323844e-06 9.780674166779417152e-04
4.830000000000000343e-06 4.502887798316278223e-03 3.503988717694660908e-06 1.046253037768318664e-03
6.080999999999999885e-06 5.670217999231269741e-03 4.731126407333307547e-06 1.056224360839501646e-03
7.930000000000000308e-06 7.396012414119570652e-03 6.599662989063778187e-06 1.109203753630785610e-03
9.982000000000000313e-06 9.311815711689977113e-03 8.879881089227186733e-06 1.271216815433141075e-03
1.256999999999999993e-05 1.172874412604260098e-02 1.207676739913533738e-05 1.374195438212825332e-03
1.521999999999999997e-05 1.420427250933824909e-02 1.547541302213394990e-05 1.371610497379100249e-03
1.991000000000000080e-05 1.858690797761085312e-02 2.160710455847765458e-05 1.426578142835871997e-03
2.506999999999999883e-05 2.341050104039446925e-02 2.908031724375689851e-05 1.672007475975408053e-03
2.790999999999999875e-05 2.606604784714952258e-02 3.357009132255487721e-05 1.709425557744154774e-03
3.806999999999999973e-05 3.556967988784798945e-02 4.986781576435106434e-05 1.720407281314112165e-03
5.063000000000000145e-05 4.732434580343149871e-02 7.073400252905581275e-05 1.829889149838781265e-03
6.592000000000000583e-05 6.164112392498975052e-02 9.765037643900635188e-05 1.930242980462695823e-03
8.433000000000000066e-05 7.888776783401378612e-02 1.317235490470395893e-04 2.021055815200022837e-03
1.062000000000000064e-04 9.938561165478684845e-02 1.740088341640037047e-04 2.104789529260958983e-03
1.321000000000000126e-04 1.236720406455826121e-01 2.260189757651373944e-04 2.178291718403657477e-03
1.623999999999999901e-04 1.520974545104751274e-01 2.888169908545388338e-04 2.240170365918073281e-03
1.689999999999999879e-04 1.582907717069566844e-01 3.027354772999506964e-04 2.254509350360745651e-03
1.758999999999999930e-04 1.647661861691531171e-01 3.173785841705756782e-04 2.268169273277113179e-03
1.830000000000000029e-04 1.714298948183871907e-01 3.325196584577469103e-04 2.276170334580628063e-03
1.901999999999999882e-04 1.781880600978280049e-01 3.479577791899843742e-04 2.292561569242367037e-03
1.977000000000000079e-04 1.852284385240466902e-01 3.641242634600037713e-04 2.299943765467868384e-03
2.054000000000000053e-04 1.924572004474696396e-01 3.808304060475003897e-04 2.322187632288155723e-03
2.079000000000000119e-04 1.948043378760714872e-01 3.864137987380476553e-04 2.435429768083530178e-03
2.081999999999999921e-04 1.950859988578999005e-01 3.870314100985603909e-04 1.950065624557156818e-03
2.090999999999999868e-04 1.959309855029948977e-01 3.881261957135444685e-04 6.411875526909013856e-04
2.159999999999999919e-04 2.024093317906446865e-01 3.940874488768042125e-04 1.199166870571831411e-03
2.231000000000000019e-04 2.090756740932291913e-01 4.013938420547467825e-04 9.928616047829054436e-04
2.311000000000000066e-04 2.165873044433437034e-01 4.085241694843774404e-04 9.056166966301716637e-04
2.401000000000000085e-04 2.250381721984245909e-01 4.159700687886608468e-04 8.565463878902855599e-04
2.500000000000000052e-04 2.343344406330727658e-01 4.237602369176299592e-04 8.194318812157330018e-04
2.642999999999999733e-04 2.477629128650125634e-01 4.345596643180389446e-04 7.890063723638815647e-04
3.052999999999999941e-04 2.862671839140227270e-01 4.644058706720978241e-04 7.612775562167708662e-04
3.533000000000000224e-04 3.313503829113090826e-01 4.987577676308450197e-04 7.626578558207241024e-04
4.075999999999999871e-04 3.823564017794535141e-01 5.381334366106255759e-04 7.813048116943254948e-04
4.679999999999999915e-04 4.390986251953180042e-01 5.832692638200615834e-04 8.096035963157804938e-04
5.341000000000000261e-04 5.012024644415256081e-01 6.346556894078133086e-04 8.452514814113673558e-04
6.059000000000000366e-04 5.686690698184251325e-01 6.930641302632923034e-04 8.862253587289389486e-04
7.661000000000000275e-04 7.192254882508629654e-01 8.328184776562496576e-04 9.702780530519144065e-04
1.262000000000000101e-03 1.185459127778160093e+00 1.338484980802662205e-03 1.198863597978450275e-03
1.894999999999999983e-03 1.780909071169781921e+00 2.123481960401060308e-03 1.437771491635827115e-03
2.673000000000000029e-03 2.513147344746868850e+00 3.261860252001994032e-03 1.671524566936786766e-03
3.605999999999999830e-03 3.391736073717691369e+00 4.828136641022434151e-03 1.893900408978071038e-03
4.709999999999999777e-03 4.431905410739045870e+00 6.903512974832482635e-03 2.096551352830673849e-03
7.496000000000000059e-03 7.058993649504918366e+00 1.289742191321638018e-02 2.466596387205546859e-03
1.119999999999999989e-02 1.055540362104863661e+01 2.212077014004794340e-02 2.809304433764861584e-03
1.600000000000000033e-02 1.509117352747679952e+01 3.559566804390756900e-02 3.132325055719984222e-03
2.206999999999999934e-02 2.083310616724802244e+01 5.457322122755020599e-02 3.477840948757840792e-03
2.947999999999999926e-02 2.785007348564149154e+01 8.049103664263126956e-02 3.909302116317729670e-03
4.268000000000000266e-02 4.036707211535221518e+01 1.353887601042819133e-01 4.862066536253286525e-03
6.219999999999999835e-02 5.891246509830522626e+01 2.419691225623893105e-01 6.630786177272363080e-03
7.316999999999999893e-02 6.935151695866235855e+01 3.161896974764099033e-01 7.588671314871411888e-03
7.595999999999999974e-02 7.200836722020332559e+01 3.371250777904805096e-01 8.170805199905812125e-03
7.685877551020407761e-02 7.286441684088337922e+01 3.442131056066630168e-01 8.389038377253660306e-03
7.775755102040816935e-02 7.372055047168827002e+01 3.514938156191534935e-01 8.619301287847505599e-03
7.865632653061224722e-02 7.457676942693271371e+01 3.589773098980939547e-01 8.861016592138632603e-03
7.955510204081632508e-02 7.543307510354649992e+01 3.666732008126205589e-01 9.113606950578343260e-03
8.045387755102040295e-02 7.628946897274070693e+01 3.745906109283235752e-01 9.376495023617934313e-03
8.135265306122449469e-02 7.714595257204537404e+01 3.827381728977803377e-01 9.649103471708704235e-03
8.225142857142857256e-02 7.800252749769788352e+01 3.911240293424412817e-01 9.930854955301937625e-03
8.315020408163265042e-02 7.885919539736251238e+01 3.997558327243625476e-01 1.022117213484893643e-02
8.404897959183672829e-02 7.971595796316348981e+01 4.086407452064690915e-01 1.051947767080099738e-02
8.494775510204082003e-02 8.057281692501460668e+01 4.177854385002182647e-01 1.082519422360941896e-02
8.584653061224489790e-02 8.142977404422913423e+01 4.271960936996991864e-01 1.113774445372548751e-02
8.674530612244897576e-02 8.228683110739578410e+01 4.368784011013653323e-01 1.145655102160050495e-02
8.764408163265305363e-02 8.314398992050684001e+01 4.468375600087395871e-01 1.178103658768576457e-02
8.854285714285714537e-02 8.400125230332430704e+01 4.570782785215735111e-01 1.211062381243257179e-02
8.944163265306122323e-02 8.485862008397332090e+01 4.676047733090678005e-01 1.244473535629220598e-02
9.034040816326530110e-02 8.571609509375015534e+01 4.784207693668845462e-01 1.278279387971597084e-02
9.123918367346939284e-02 8.657367916213476633e+01 4.895294997577903096e-01 1.312422204315516309e-02
9.213795918367347071e-02 8.743137411199626285e+01 5.009337053358776659e-01 1.346844250706107603e-02
9.303673469387754857e-02 8.828918175498419885e+01 5.126356344544140686e-01 1.381487793188500464e-02
9.393551020408162644e-02 8.914710388709349331e+01 5.246370426574527013e-01 1.416295097807824740e-02
9.483428571428570431e-02 9.000514228439728015e+01 5.369391923554363011e-01 1.451208430609209413e-02
9.573306122448979605e-02 9.086329869893758371e+01 5.495428524851007079e-01 1.486170057637785369e-02
9.663183673469387391e-02 9.172157485476752470e+01 5.624482981540646076e-01 1.521122244938680548e-02
9.753061224489795178e-02 9.257997244413743942e+01 5.756553102705677105e-01 1.556007258557025319e-02
9.842938775510204352e-02 9.343849312381723848e+01 5.891631751588822796e-01 1.590767364537949702e-02
9.932816326530612139e-02 9.429713851155115378e+01 6.029706841609925316e-01 1.625344828926582330e-02
1.002269387755101993e-01 9.515591018263518208e+01 6.170761332251993858e-01 1.659681917768052531e-02
1.011257142857142910e-01 9.601480966661537764e+01 6.314773224823591047e-01 1.693720897107491713e-02
1.020244897959183689e-01 9.687383844409833955e+01 6.461715558105256552e-01 1.727404032990027122e-02
1.029232653061224467e-01 9.773299794367109428e+01 6.611556403888180222e-01 1.760673591460789472e-02
1.038220408163265246e-01 9.859228953892396419e+01 6.764258862413780049e-01 1.793471838564908438e-02
1.047208163265306025e-01 9.945171454557315371e+01 6.919781057723367601e-01 1.825741040347513694e-02
1.056195918367346942e-01 1.003112742186776813e+02 7.078076132927496600e-01 1.857423462853734220e-02
1.065183673469387721e-01 1.011709697499469343e+02 7.239092245405004400e-01 1.888461372128700383e-02
1.074171428571428499e-01 1.020308022651354207e+02 7.402772561942198015e-01 1.918797034217540123e-02
1.083159183673469417e-01 1.028907728215203292e+02 7.569055253822953855e-01 1.948372715165384503e-02
1.092146938775510195e-01 1.037508824054586398e+02 7.737873491880912225e-01 1.977130681017362501e-02
1.101134693877550974e-01 1.046111319300210880e+02 7.909155441525304031e-01 2.005013197818604140e-02
1.110122448979591891e-01 1.054715222326982484e+02 8.082824257752212471e-01 2.031962531614239093e-02
1.119110204081632531e-01 1.063320540731784121e+02 8.258798080153433308e-01 2.057920948449395993e-02
1.128097959183673449e-01 1.071927281311913163e+02 8.436990027935450387e-01 2.082830714369204861e-02
1.137085714285714227e-01 1.080535450044173587e+02 8.617308194961154078e-01 2.106634095418795025e-02
1.146073469387755006e-01 1.089145052064592107e+02 8.799655644827454326e-01 2.129273357643297199e-02
1.155061224489795924e-01 1.097756091648729750e+02 8.983930405991970014e-01 2.150690767087839322e-02
1.164048979591836702e-01 1.106368572192563420e+02 9.170025466962355987e-01 2.170828589797552111e-02
1.173036734693877481e-01 1.114982496193931354e+02 9.357828771562073378e-01 2.189629091817564197e-02
1.182024489795918398e-01 1.123597865234502535e+02 9.547223214286545412e-01 2.207034539193005948e-02
1.191012244897959177e-01 1.132214679962262238e+02 9.738086635763949506e-01 2.222987197969007039e-02
1.199999999999999956e-01 1.140832940074495667e+02 9.930291818335097442e-01 2.237429334190696104e-02
1.228421357075055731e-01 1.168095378438565461e+02 1.054555065079735066e+00 2.276165757713881008e-02
1.256842714150111506e-01 1.195372178310789764e+02 1.117172765051883010e+00 2.315107431665723928e-02
1.285264071225167282e-01 1.222663262549878311e+02 1.180888857407289994e+00 2.354257188941145593e-02
1.313685428300223057e-01 1.249968558892147712e+02 1.245710014754000339e+00 2.393618462693611337e-02
1.342106785375278832e-01 1.277287999657949769e+02 1.311643026523124256e+00 2.433195530113032787e-02
1.370528142450334608e-01 1.304621521487869131e+02 1.378694825439506166e+00 2.472993746052103842e-02
1.398949499525390383e-01 1.331969065106971470e+02 1.446872520343558621e+00 2.513019767153059497e-02
1.427370856600445881e-01 1.359330575115490944e+02 1.516183435132816282e+00 2.553281767051156226e-02
1.455792213675501656e-01 1.386705999804545684e+02 1.586635153605655990e+00 2.593789643166436246e-02
1.484213570750557432e-01 1.414095290995547884e+02 1.658235570001741932e+00 2.634555215523123189e-02
1.512634927825613207e-01 1.441498403902134271e+02 1.730992945044426135e+00 2.675592417994109018e-02
1.541056284900668982e-01 1.468915297013491568e+02 1.804915967299549395e+00 2.716917482300636871e-02
1.569477641975724758e-01 1.496345931998096432e+02 1.880013819672937014e+00 2.758549115056592796e-02
1.597898999050780533e-01 1.523790273626912892e+02 1.956296250875559029e+00 2.800508668098688342e-02
1.626320356125836308e-01 1.551248289715198325e+02 2.033773651690841788e+00 2.842820302301868676e-02
1.654741713200892084e-01 1.578719951082102568e+02 2.112457135883064385e+00 2.885511145039375974e-02
1.683163070275947859e-01 1.606205231527348758e+02 2.192358625589225785e+00 2.928611441409782051e-02
1.711584427351003357e-01 1.633704107824247842e+02 2.273490941039279178e+00 2.972154699318004661e-02
1.740005784426059132e-01 1.661216559728444224e+02 2.355867894451264100e+00 3.016177828464337157e-02
1.768427141501114908e-01 1.688742570001744525e+02 2.439504387948641995e+00 3.060721273263938141e-02
1.796848498576170683e-01 1.716282124450467848e+02 2.524416515347183587e+00 3.105829139689681231e-02
1.825269855651226458e-01 1.743835211977758775e+02 2.610621667657984091e+00 3.151549316002855150e-02
1.853691212726282234e-01 1.771401824649362879e+02 2.698138642151770572e+00 3.197933587309427506e-02
1.882112569801338009e-01 1.798981957772327007e+02 2.786987754827544794e+00 3.245037743853960988e-02
1.910533926876393784e-01 1.826575609986202835e+02 2.877190956125876831e+00 3.292921682939013717e-02
1.938955283951449560e-01 1.854182783366239562e+02 2.968771949723828740e+00 3.341649504334515131e-02
1.967376641026505335e-01 1.881803483538173509e+02 3.061756314244590271e+00 3.391289599019713108e-02
1.995797998101561110e-01 1.909437719804157894e+02 3.156171627710474770e+00 3.441914731079127182e-02
2.024219355176616886e-01 1.937085505279420659e+02 3.252047594562991861e+00 3.493602112554093642e-02
2.052640712251672661e-01 1.964746857039253314e+02 3.349416175068293811e+00 3.546433471032546525e-02
2.081062069326728436e-01 1.992421796275928045e+02 3.448311716920449577e+00 3.600495109741705391e-02
2.109483426401784212e-01 2.020110348465155425e+02 3.548771088848705180e+00 3.655877959891589563e-02
2.137904783476839987e-01 2.047812543541682828e+02 3.650833816028244527e+00 3.712677625001298970e-02
2.166326140551895763e-01 2.075528416083674017e+02 3.754542217086918043e+00 3.770994416925266268e-02
2.194747497626951538e-01 2.103258005505470010e+02 3.859941542493053213e+00 3.830933383282872362e-02
2.223168854702007036e-01 2.131001356258364865e+02 3.967080114101781962e+00 3.892604325982134544e-02
2.251590211777062811e-01 2.158758518039005025e+02 4.076009465629370609e+00 3.956121810516532999e-02
2.280011568852118586e-01 2.186529546005050690e+02 4.186784483816813562e+00 4.021605165703583118e-02
2.308432925927174362e-01 2.214314500997691937e+02 4.299463550035540926e+00 4.089178473524387319e-02
2.336854283002230137e-01 2.242113449770677676e+02 4.414108682079422863e+00 4.158970548715151816e-02
2.365275640077285912e-01 2.269926465225402978e+02 4.530785675878458818e+00 4.231114907754739141e-02
2.393696997152341410e-01 2.297753626651739012e+02 4.649564246860560246e+00 4.305749726886492351e-02
2.422118354227397186e-01 2.325595019974151683e+02 4.770518170678767156e+00 4.383017788808014903e-02
2.450539711302453239e-01 2.353450738002722460e+02 4.893725423012024400e+00 4.463066417659368457e-02
2.478961068377508736e-01 2.381320880688674606e+02 5.019268318138416340e+00 4.546047401938165672e-02
2.507382425452564512e-01 2.409205555383980197e+02 5.147233645970439753e+00 4.632116904969351551e-02
2.535803782527620287e-01 2.437104877104611091e+02 5.277712807232509462e+00 4.721435362558151771e-02
2.564225139602676062e-01 2.465018968797014622e+02 5.410801946451641697e+00 4.814167367456746727e-02
2.592646496677731838e-01 2.492947961607388834e+02 5.546602082422844582e+00 4.910481540278471835e-02
3.356061874296553671e-01 3.254544054818117615e+02 1.453544037370015829e+01 1.848090927852201193e-01
4.119477251915375504e-01 4.047745793644016885e+02 3.473466667662606255e+01 3.205133701676555202e-01
4.882892629534197337e-01 4.888816801531102101e+02 6.763485726191177605e+01 4.562176475500909212e-01
5.646308007153019171e-01 5.791583558469951640e+02 1.152703423397444311e+02 5.919219249325262666e-01
6.409723384771841559e-01 6.769171319226716150e+02 1.801981849606744959e+02 7.276262023149617786e-01
7.173138762390662837e-01 7.834435770292100187e+02 2.610591441015907890e+02 7.866122705693799899e-01
7.936554140009485225e-01 8.991884218399063684e+02 3.481707301265466867e+02 7.232745384685023149e-01
8.699969517628306503e-01 1.023261742690485221e+03 4.337480645462268285e+02 6.599368063676247509e-01
9.463384895247127782e-01 1.154721416474533726e+03 5.161425962323861540e+02 5.965990742667471869e-01
1.022680027286595017e+00 1.292652418146524951e+03 5.938993268180065570e+02 5.332613421658695119e-01
1.099021565048477367e+00 1.436175163961885119e+03 6.657544673948013951e+02 4.699236100649917813e-01
1.175363102810359273e+00 1.584451213987420942e+03 7.306291891205254387e+02 4.065858779641144394e-01
1.251704640572241622e+00 1.736686986503630578e+03 7.876207499866291073e+02 3.432481458632367088e-01
1.328046178334123972e+00 1.892135963407307372e+03 8.359919245766319591e+02 2.799104137623589228e-01
1.404387716096005878e+00 2.050099745300388804e+03 8.751594140563328210e+02 2.165726816614815808e-01
1.480729253857888228e+00 2.209928229074764204e+03 9.046817341384760311e+02 1.532349495606037948e-01
1.557070791619770134e+00 2.371019118136061479e+03 9.242469471927350924e+02 8.989721745972645284e-02
1.633412329381652484e+00 2.533275204785261394e+03 9.565140064448146404e+02 3.066145292171877923e-01
1.709753867143534833e+00 2.697604257129642065e+03 1.011259565950952947e+03 3.591788955432828057e-01
1.786095404905416739e+00 2.864626460315788790e+03 1.078996711232604412e+03 4.508405861275550097e-01
1.862436942667299089e+00 3.034883824734493373e+03 1.163675491861471983e+03 5.425022767118277134e-01
1.938778480429181439e+00 3.208956003439520828e+03 1.266232430009610425e+03 6.341639672961004726e-01
2.015120018191063345e+00 3.387416658982227091e+03 1.387759751135556371e+03 7.258256578803726766e-01
2.091461555952945695e+00 3.570840095092753472e+03 1.529508334500533010e+03 8.174873484646454358e-01
