# density  energy_density  pressure   sound_speed_squared  [All in nuclear units]
2.720000000000000022e-14 2.529924618736292620e-11 1.061056609100270887e-19 3.766610435412189122e-08
1.269999999999999890e-13 1.181251617980081254e-10 4.870113551826584858e-18 6.497781477172163475e-08
6.929999999999999754e-13 6.445728594625782745e-10 1.018299070687946017e-16 3.033770597342807186e-07
6.295000000000000137e-12 5.855111460395753757e-09 5.487150723824490656e-15 1.763710043904196507e-06
1.581000000000000150e-11 1.470523320212576141e-08 2.904239460150760759e-14 3.559434472327477622e-06
3.971999999999999958e-11 3.694456170323160790e-08 1.439340266754906811e-13 6.772854871245677111e-06
9.975999999999999982e-11 9.278976412613005154e-08 6.812143616221268841e-13 1.246890511177539320e-05
2.505999999999999928e-10 2.330928829758143313e-07 3.107749196951638608e-12 2.212095130576091967e-05
6.294000000000000186e-10 5.854398883216247602e-07 1.363250409771533549e-11 3.761981047239428883e-05
1.581000000000000021e-09 1.470619631082054101e-06 5.726014178088476303e-11 6.095350986710739404e-05
3.971999999999999932e-09 3.694861084648016046e-06 2.210019573374265380e-10 8.628023653304385055e-05
5.000000000000000105e-09 4.651201787816927976e-06 3.071485916280120014e-10 9.387863480799757518e-05
9.975999999999999465e-09 9.280587964640925786e-06 8.385361004129998845e-10 1.356922228656245837e-04
1.989999999999999952e-08 1.851419242998081003e-05 2.287763168863418088e-09 1.782101978513718314e-04
3.972999999999999908e-08 3.696699295748789187e-05 6.061583099087538954e-09 2.308134738384234820e-04
7.925999999999999637e-08 7.375765469301719828e-05 1.575347858094044765e-08 2.960532096713864875e-04
1.580999999999999930e-07 1.471491184379128891e-04 3.910429618672550719e-08 3.402859755131850544e-04
1.991000000000000027e-07 1.853209783927820692e-04 5.252045687899177454e-08 3.626488188833278743e-04
3.155999999999999938e-07 2.938002528823880299e-04 9.730770378831954314e-08 4.630767356912104081e-04
5.000999999999999849e-07 4.656344063839075714e-04 1.837494945860225819e-07 5.430301232045120323e-04
6.295999999999999732e-07 5.862651417037388971e-04 2.503103884558263872e-07 5.605192962670089638e-04
9.666999999999999941e-07 9.003386739730535665e-04 4.324450868778576936e-07 5.993081670211623108e-04
1.531999999999999901e-06 1.427170885631398036e-03 7.780217275717420968e-07 7.125938556504039095e-04
2.506999999999999883e-06 2.336134972129507662e-03 1.471005394641589826e-06 8.121876172121876309e-04
3.974000000000000407e-06 3.704315759716615697e-03 2.695705763844323844e-06 9.780674166779417152e-04
4.830000000000000343e-06 4.502887798316278223e-03 3.503988717694660908e-06 1.046253037768318664e-03
6.080999999999999885e-06 5.670217999231269741e-03 4.731126407333307547e-06 1.056224360839501646e-03
7.930000000000000308e-06 7.396012414119570652e-03 6.599662989063778187e-06 1.109203753630785610e-03
9.982000000000000313e-06 9.311815711689977113e-03 8.879881089227186733e-06 1.271216815433141075e-03
1.256999999999999993e-05 1.172874412604260098e-02 1.207676739913533738e-05 1.374195438212825332e-03
1.521999999999999997e-05 1.420427250933824909e-02 1.547541302213394990e-05 1.371610497379100249e-03
1.991000000000000080e-05 1.858690797761085312e-02 2.160710455847765458e-05 1.426578142835871997e-03
2.506999999999999883e-05 2.341050104039446925e-02 2.908031724375689851e-05 1.672007475975408053e-03
2.790999999999999875e-05 2.606604784714952258e-02 3.357009132255487721e-05 1.709425557744154774e-03
3.806999999999999973e-05 3.556967988784798945e-02 4.986781576435106434e-05 1.720407281314112165e-03
5.063000000000000145e-05 4.732434580343149871e-02 7.073400252905581275e-05 1.829889149838781265e-03
6.592000000000000583e-05 6.164112392498975052e-02 9.765037643900635188e-05 1.930242980462695823e-03
8.433000000000000066e-05 7.888776783401378612e-02 1.317235490470395893e-04 2.021055815200022837e-03
1.062000000000000064e-04 9.938561165478684845e-02 1.740088341640037047e-04 2.104789529260958983e-03
1.321000000000000126e-04 1.236720406455826121e-01 2.260189757651373944e-04 2.178291718403657477e-03
1.623999999999999901e-04 1.520974545104751274e-01 2.888169908545388338e-04 2.240170365918073281e-03
1.689999999999999879e-04 1.582907717069566844e-01 3.027354772999506964e-04 2.254509350360745651e-03
1.758999999999999930e-04 1.647661861691531171e-01 3.173785841705756782e-04 2.268169273277113179e-03
1.830000000000000029e-04 1.714298948183871907e-01 3.325196584577469103e-04 2.276170334580628063e-03
1.901999999999999882e-04 1.781880600978280049e-01 3.479577791899843742e-04 2.292561569242367037e-03
1.977000000000000079e-04 1.852284385240466902e-01 3.641242634600037713e-04 2.299943765467868384e-03
2.054000000000000053e-04 1.924572004474696396e-01 3.808304060475003897e-04 2.322187632288155723e-03
2.079000000000000119e-04 1.948043378760714872e-01 3.864137987380476553e-04 2.435429768083530178e-03
2.081999999999999921e-04 1.950859988578999005e-01 3.870314100985603909e-04 1.950065624557156818e-03
2.090999999999999868e-04 1.959309855029948977e-01 3.881261957135444685e-04 6.411875526909013856e-04
2.159999999999999919e-04 2.024093317906446865e-01 3.940874488768042125e-04 1.199166870571831411e-03
2.231000000000000019e-04 2.090756740932291913e-01 4.013938420547467825e-04 9.928616047829054436e-04
2.311000000000000066e-04 2.165873044433437034e-01 4.085241694843774404e-04 9.056166966301716637e-04
2.401000000000000085e-04 2.250381721984245909e-01 4.159700687886608468e-04 8.565463878902855599e-04
2.500000000000000052e-04 2.343344406330727658e-01 4.237602369176299592e-04 8.194318812157330018e-04
2.642999999999999733e-04 2.477629128650125634e-01 4.345596643180389446e-04 7.890063723638815647e-04
3.052999999999999941e-04 2.862671839140227270e-01 4.644058706720978241e-04 7.612775562167708662e-04
3.533000000000000224e-04 3.313503829113090826e-01 4.987577676308450197e-04 7.626578558207241024e-04
4.075999999999999871e-04 3.823564017794535141e-01 5.381334366106255759e-04 7.813048116943254948e-04
4.679999999999999915e-04 4.390986251953180042e-01 5.832692638200615834e-04 8.096035963157804938e-04
5.341000000000000261e-04 5.012024644415256081e-01 6.346556894078133086e-04 8.452514814113673558e-04
6.059000000000000366e-04 5.686690698184251325e-01 6.930641302632923034e-04 8.862253587289389486e-04
7.661000000000000275e-04 7.192254882508629654e-01 8.328184776562496576e-04 9.702780530519144065e-04
1.262000000000000101e-03 1.185459127778160093e+00 1.338484980802662205e-03 1.198863597978450275e-03
1.894999999999999983e-03 1.780909071169781921e+00 2.123481960401060308e-03 1.437771491635827115e-03
2.673000000000000029e-03 2.513147344746868850e+00 3.261860252001994032e-03 1.671524566936786766e-03
3.605999999999999830e-03 3.391736073717691369e+00 4.828136641022434151e-03 1.893900408978071038e-03
4.709999999999999777e-03 4.431905410739045870e+00 6.903512974832482635e-03 2.096551352830673849e-03
7.496000000000000059e-03 7.058993649504918366e+00 1.289742191321638018e-02 2.466596387205546859e-03
1.119999999999999989e-02 1.055540362104863661e+01 2.212077014004794340e-02 2.809304433764861584e-03
1.600000000000000033e-02 1.509117352747679952e+01 3.559566804390756900e-02 3.132325055719984222e-03
2.206999999999999934e-02 2.083310616724802244e+01 5.457322122755020599e-02 3.477840948757840792e-03
2.947999999999999926e-02 2.785007348564149154e+01 8.049103664263126956e-02 3.909302116317729670e-03
4.268000000000000266e-02 4.036707211535221518e+01 1.353887601042819133e-01 4.862066536253286525e-03
6.219999999999999835e-02 5.891246509830522626e+01 2.419691225623893105e-01 6.630786177272363080e-03
7.316999999999999893e-02 6.935151695866235855e+01 3.161896974764099033e-01 7.588671314871411888e-03
7.595999999999999974e-02 7.200836722020332559e+01 3.371250777904805096e-01 8.170805199905812125e-03
7.685877551020407761e-02 7.286441678916445142e+01 3.442042546930401126e-01 8.368361893942632967e-03
7.775755102040816935e-02 7.372055012882093195e+01 3.514527231277514985e-01 8.564666220859409179e-03
7.865632653061224722e-02 7.457676822233763403e+01 3.588695476988897348e-01 8.759940995814610373e-03
7.955510204081632508e-02 7.543307202080599438e+01 3.664539838118185400e-01 8.954409033966733919e-03
8.045387755102040295e-02 7.628946244648706454e+01 3.742054777479738026e-01 9.148293150474256369e-03
8.135265306122449469e-02 7.714594039591118246e+01 3.821236667440016110e-01 9.341816160495666418e-03
8.225142857142857256e-02 7.800250674284072261e+01 3.902083790748024361e-01 9.535200879189444090e-03
8.315020408163265042e-02 7.885916234110489142e+01 3.984596341402677488e-01 9.728670121714069405e-03
8.404897959183672829e-02 7.971590802731273584e+01 4.068776425555196141e-01 9.922446703228032794e-03
8.494775510204082003e-02 8.057274462345084487e+01 4.154628062444953307e-01 1.011675343888981601e-02
8.584653061224489790e-02 8.142967293937243767e+01 4.242157185367412819e-01 1.031181314385789562e-02
8.674530612244897576e-02 8.228669377518312444e+01 4.331371642673061406e-01 1.050784863329076550e-02
8.764408163265305363e-02 8.314380792352849880e+01 4.422281198796420565e-01 1.070508272234690569e-02
8.854285714285714537e-02 8.400101617178962954e+01 4.514897535314466026e-01 1.090373822618480315e-02
8.944163265306122323e-02 8.485831930418993352e+01 4.609234252033941326e-01 1.110403795996293269e-02
9.034040816326530110e-02 8.571571810381837508e+01 4.705306868107268503e-01 1.130620473883978128e-02
9.123918367346939284e-02 8.657321335457410783e+01 4.803132823176877730e-01 1.151046137797383587e-02
9.213795918367347071e-02 8.743080584303450564e+01 4.902731478547973643e-01 1.171703069252357995e-02
9.303673469387754857e-02 8.828849636025240954e+01 5.004124118389904341e-01 1.192613549764749530e-02
9.393551020408162644e-02 8.914628570348422443e+01 5.107333950966399527e-01 1.213799860850406365e-02
9.483428571428570431e-02 9.000417467785396752e+01 5.212386109895116304e-01 1.235284284025177023e-02
9.573306122448979605e-02 9.086216409795476068e+01 5.319307655437033322e-01 1.257089100804910549e-02
9.663183673469387391e-02 9.172025478939166021e+01 5.428127575816347195e-01 1.279236592705454076e-02
9.753061224489795178e-02 9.257844759026833970e+01 5.538876788571653886e-01 1.301749041242656647e-02
9.842938775510204352e-02 9.343674335262008412e+01 5.651588141939268839e-01 1.324648727932366959e-02
9.932816326530612139e-02 9.429514294379586659e+01 5.766296416269651726e-01 1.347957934290432667e-02
1.002269387755101993e-01 9.515364724779161065e+01 5.883038325478024966e-01 1.371698941832702467e-02
1.011257142857142910e-01 9.601225716653726749e+01 6.001852518530285119e-01 1.395894032075024882e-02
1.020244897959183689e-01 9.687097362113858878e+01 6.122779580965462820e-01 1.420565486533247740e-02
1.029232653061224467e-01 9.772979755307758865e+01 6.245862036456041322e-01 1.445735586723219737e-02
1.038220408163265246e-01 9.858872992537159519e+01 6.371144348407479230e-01 1.471426614160789223e-02
1.047208163265306025e-01 9.944777172369430218e+01 6.498672921598409591e-01 1.497660850361804893e-02
1.056195918367346942e-01 1.003069239574590767e+02 6.628496103863024125e-01 1.524460576842114751e-02
1.065183673469387721e-01 1.011661876608670809e+02 6.760664187817198023e-01 1.551848075117567317e-02
1.074171428571428499e-01 1.020255638939217135e+02 6.895229412630023980e-01 1.579845626704010422e-02
1.083159183673469417e-01 1.028850537434104382e+02 7.032245965842413016e-01 1.608475513117293282e-02
1.092146938775510195e-01 1.037446583238554183e+02 7.171769985234514033e-01 1.637760015873263725e-02
1.101134693877550974e-01 1.046043787784347074e+02 7.313859560743775079e-01 1.667721416487770100e-02
1.110122448979591891e-01 1.054642162798743925e+02 7.458574736435454877e-01 1.698381996476661104e-02
1.119110204081632531e-01 1.063241720313144469e+02 7.605977512527483109e-01 1.729764037355784739e-02
1.128097959183673449e-01 1.071842472671471995e+02 7.756131847471655627e-01 1.761889820640989354e-02
1.137085714285714227e-01 1.080444432538318438e+02 7.909103660093041999e-01 1.794781627848123645e-02
1.146073469387755006e-01 1.089047612906841209e+02 8.064960831789750317e-01 1.828461740493035614e-02
1.155061224489795924e-01 1.097652027106434360e+02 8.223773208795011058e-01 1.862952440091574305e-02
1.164048979591836702e-01 1.106257688810177200e+02 8.385612604503716039e-01 1.898276008159587372e-02
1.173036734693877481e-01 1.114864612042070746e+02 8.550552801865567432e-01 1.934454726212923512e-02
1.182024489795918398e-01 1.123472811184074942e+02 8.718669555846962904e-01 1.971510875767430726e-02
1.191012244897959177e-01 1.132082300982939671e+02 8.890040595963841774e-01 2.009466738338958058e-02
1.199999999999999956e-01 1.140693096556865243e+02 9.064745628887749263e-01 2.048344595443352817e-02
1.239254733229185473e-01 1.178317293468721516e+02 9.868842565842077530e-01 2.225961555904255179e-02
1.278509466458370991e-01 1.215968028862690034e+02 1.074087135323991138e+00 2.406181101031720782e-02
1.317764199687556648e-01 1.253646589674475109e+02 1.168185982415718138e+00 2.588579528474898098e-02
1.357018932916742027e-01 1.291354214587229308e+02 1.269268779236897959e+00 2.772754614260415987e-02
1.396273666145927406e-01 1.329092094042941028e+02 1.377409445535143551e+00 2.958325458868228328e-02
1.435528399375113062e-01 1.366861370459486409e+02 1.492668570597081024e+00 3.144932256994460024e-02
1.474783132604298719e-01 1.404663138622467784e+02 1.615094133358734974e+00 3.332235997060881139e-02
1.514037865833484098e-01 1.442498446225381201e+02 1.744722209666984325e+00 3.519918095908026318e-02
1.553292599062669477e-01 1.480368294535321922e+02 1.881577665016740841e+00 3.707679973571448989e-02
1.592547332291855133e-01 1.518273639164509348e+02 2.025674831185483971e+00 3.895242572569233841e-02
1.631802065521040790e-01 1.556215390930400417e+02 2.177018165268634231e+00 4.082345825711609921e-02
1.671056798750226169e-01 1.594194416789360673e+02 2.335602889688344952e+00 4.268748076069475705e-02
1.710311531979411548e-01 1.632211540830604690e+02 2.501415611806549588e+00 4.454225452401452956e-02
1.749566265208597204e-01 1.670267545318653220e+02 2.674434921822162803e+00 4.638571203032891554e-02
1.788820998437782861e-01 1.708363171773850411e+02 2.854631967673524784e+00 4.821594990901401090e-02
1.828075731666968240e-01 1.746499122081595772e+02 3.041971005701651798e+00 5.003122152229386860e-02
1.867330464896153619e-01 1.784676059621843933e+02 3.236409925858600545e+00 5.182992921052676644e-02
1.906585198125339276e-01 1.822894610411288170e+02 3.437900750269202277e+00 5.361061621624862300e-02
1.945839931354524932e-01 1.861155364251306992e+02 3.646390103974397334e+00 5.537195830528858498e-02
1.985094664583710311e-01 1.899458875875359354e+02 3.861819656701188208e+00 5.711275510160562785e-02
2.024349397812895690e-01 1.937805666090053762e+02 4.084126534518585316e+00 5.883192115104794728e-02
2.063604131042081347e-01 1.976196222904528383e+02 4.313243700251672585e+00 6.052847672801894147e-02
2.102858864271267003e-01 2.014631002643245381e+02 4.549100301537841062e+00 6.220153839805680346e-02
2.142113597500452382e-01 2.053110431037554804e+02 4.791621985421217644e+00 6.385030934861821161e-02
2.181368330729637761e-01 2.091634904291787223e+02 5.040731178394226575e+00 6.547406949991485536e-02
2.220623063958823418e-01 2.130204790119817631e+02 5.296347330810110776e+00 6.707216540751496925e-02
2.259877797188009074e-01 2.168820428748338713e+02 5.558387124608242580e+00 6.864399996861537956e-02
2.299132530417194453e-01 2.207482133883248423e+02 5.826764643316375114e+00 7.018902194444284759e-02
2.338387263646379832e-01 2.246190193635814296e+02 6.101391503321990761e+00 7.170671531220734751e-02
2.377641996875565489e-01 2.284944871405349147e+02 6.382176945440266813e+00 7.319658846141793851e-02
2.416896730104751145e-01 2.323746406715406749e+02 6.669027885850534965e+00 7.465816325126299613e-02
2.456151463333936524e-01 2.362595016000577743e+02 6.961848925528598464e+00 7.609096394821017462e-02
2.495406196563121903e-01 2.401490893341124888e+02 7.260542317371021959e+00 7.749450606601079872e-02
2.534660929792307282e-01 2.440434211142878098e+02 7.565007890292180903e+00 7.886828513403076890e-02
2.573915663021493216e-01 2.479425120759880201e+02 7.875142929678344395e+00 8.021176542431901479e-02
2.613170396250678595e-01 2.518463753057473298e+02 8.190842013708543590e+00 8.152436867316563418e-02
2.652425129479863974e-01 2.557550218913642084e+02 8.511996805203414951e+00 8.280546283919903994e-02
2.691679862709049909e-01 2.596684609656588236e+02 8.838495798844684614e+00 8.405435094758982595e-02
2.730934595938235288e-01 2.635866997436663723e+02 9.170224023822555637e+00 8.527026007738373881e-02
2.770189329167420667e-01 2.675097435531008614e+02 9.507062702227084827e+00 8.645233056215070877e-02
2.809444062396606046e-01 2.714375958579436769e+02 9.848888863800089766e+00 8.759960548010575776e-02
2.848698795625791425e-01 2.753702582750317447e+02 1.019557491801757720e+01 8.871102052825288742e-02
2.887953528854977359e-01 2.793077305835505513e+02 1.054698818489027445e+01 8.978539438679826457e-02
2.927208262084162738e-01 2.832500107273646677e+02 1.090299038635195927e+01 9.082141969805715420e-02
2.966462995313348117e-01 2.871970948101539989e+02 1.126343710066700332e+01 9.181765480311204763e-02
3.005717728542534051e-01 2.911489770833612738e+02 1.162817718293782221e+01 9.277251640114750342e-02
3.044972461771719430e-01 2.951056499270020481e+02 1.199705215554162407e+01 9.368427332077083891e-02
3.084227195000904809e-01 2.990671038234405046e+02 1.236989557318604405e+01 9.455104161996184808e-02
3.123481928230090188e-01 3.030333273242891892e+02 1.274653236825795766e+01 9.537078126182020610e-02
3.876063929694781862e-01 3.809539360649967534e+02 3.233473364567439745e+01 3.977846554163801951e-01
4.628645931159474092e-01 4.647679054153841776e+02 7.926288938984947663e+01 7.001985295709404200e-01
5.381227932624166321e-01 5.580103102811299323e+02 1.376973156899696278e+02 5.645876577756241410e-01
6.133809934088858551e-01 6.588232661464787725e+02 1.867023109663843741e+02 4.152394225362934232e-01
6.886391935553550780e-01 7.648407365964263818e+02 2.225873319379979023e+02 2.658911872969626500e-01
7.638973937018241900e-01 8.742681771481098849e+02 2.512438197166176508e+02 2.581099803752405220e-01
8.391555938482933019e-01 9.868602812955529089e+02 2.908467429282792409e+02 4.414526087225695838e-01
9.144137939947625249e-01 1.103838846008002292e+03 3.493281122060287771e+02 5.549988805756245203e-01
9.896719941412317478e-01 1.226180182739187785e+03 4.192275890168045862e+02 5.867983529753200145e-01
1.064930194287700971e+00 1.354105351619051362e+03 4.963865991709397463e+02 6.185978253750155087e-01
1.140188394434170194e+00 1.487747769414008189e+03 5.812451402998833601e+02 6.503972977747108919e-01
1.215446594580639417e+00 1.627252960440513107e+03 6.742640193205703554e+02 6.821967701744063861e-01
1.290704794727108640e+00 1.772777619066346233e+03 7.759257377496920753e+02 7.139962425741018803e-01
1.365962994873577641e+00 1.924488944766826535e+03 8.867354272383364560e+02 7.457957149737972635e-01
1.441221195020046864e+00 2.082564177062517956e+03 1.007221831851068487e+03 7.775951873734927577e-01
1.516479395166516086e+00 2.247190280389705549e+03 1.137938335520688497e+03 8.093946597731881409e-01
1.591737595312985309e+00 2.418563743830152816e+03 1.279464034297149055e+03 8.411941321728836352e-01
1.666995795459454532e+00 2.596890470607153475e+03 1.432404853772865636e+03 8.729936045725790184e-01
1.742253995605923755e+00 2.782385739099603143e+03 1.597394712575357062e+03 9.047930769722745126e-01
1.817512195752392978e+00 2.975274221913521615e+03 1.775096733170173820e+03 9.365925493719700068e-01
1.892770395898861979e+00 3.175759437278705263e+03 1.951877057586243609e+03 8.305553499339690671e-01
1.968028596045331202e+00 3.382965074861791436e+03 2.115402630192033030e+03 7.501106824204065715e-01
2.043286796191800647e+00 3.596186147323621299e+03 2.266564326279364650e+03 6.696660149068438539e-01
2.118544996338269648e+00 3.814717922273539443e+03 2.403949123138137111e+03 5.892213473932815804e-01
