# density  energy_density  pressure   sound_speed_squared  [All in nuclear units]
2.720000000000000022e-14 2.529924618736292620e-11 1.061056609100270887e-19 3.766610435412189122e-08
1.269999999999999890e-13 1.181251617980081254e-10 4.870113551826584858e-18 6.497781477172163475e-08
6.929999999999999754e-13 6.445728594625782745e-10 1.018299070687946017e-16 3.033770597342807186e-07
6.295000000000000137e-12 5.855111460395753757e-09 5.487150723824490656e-15 1.763710043904196507e-06
1.581000000000000150e-11 1.470523320212576141e-08 2.904239460150760759e-14 3.559434472327477622e-06
3.971999999999999958e-11 3.694456170323160790e-08 1.439340266754906811e-13 6.772854871245677111e-06
9.975999999999999982e-11 9.278976412613005154e-08 6.812143616221268841e-13 1.246890511177539320e-05
2.505999999999999928e-10 2.330928829758143313e-07 3.107749196951638608e-12 2.212095130576091967e-05
6.294000000000000186e-10 5.854398883216247602e-07 1.363250409771533549e-11 3.761981047239428883e-05
1.581000000000000021e-09 1.470619631082054101e-06 5.726014178088476303e-11 6.095350986710739404e-05
3.971999999999999932e-09 3.694861084648016046e-06 2.210019573374265380e-10 8.628023653304385055e-05
5.000000000000000105e-09 4.651201787816927976e-06 3.071485916280120014e-10 9.387863480799757518e-05
9.975999999999999465e-09 9.280587964640925786e-06 8.385361004129998845e-10 1.356922228656245837e-04
1.989999999999999952e-08 1.851419242998081003e-05 2.287763168863418088e-09 1.782101978513718314e-04
3.972999999999999908e-08 3.696699295748789187e-05 6.061583099087538954e-09 2.308134738384234820e-04
7.925999999999999637e-08 7.375765469301719828e-05 1.575347858094044765e-08 2.960532096713864875e-04
1.580999999999999930e-07 1.471491184379128891e-04 3.910429618672550719e-08 3.402859755131850544e-04
1.991000000000000027e-07 1.853209783927820692e-04 5.252045687899177454e-08 3.626488188833278743e-04
3.155999999999999938e-07 2.938002528823880299e-04 9.730770378831954314e-08 4.630767356912104081e-04
5.000999999999999849e-07 4.656344063839075714e-04 1.837494945860225819e-07 5.430301232045120323e-04
6.295999999999999732e-07 5.862651417037388971e-04 2.503103884558263872e-07 5.605192962670089638e-04
9.666999999999999941e-07 9.003386739730535665e-04 4.324450868778576936e-07 5.993081670211623108e-04
1.531999999999999901e-06 1.427170885631398036e-03 7.780217275717420968e-07 7.125938556504039095e-04
2.506999999999999883e-06 2.336134972129507662e-03 1.471005394641589826e-06 8.121876172121876309e-04
3.974000000000000407e-06 3.704315759716615697e-03 2.695705763844323844e-06 9.780674166779417152e-04
4.830000000000000343e-06 4.502887798316278223e-03 3.503988717694660908e-06 1.046253037768318664e-03
6.080999999999999885e-06 5.670217999231269741e-03 4.731126407333307547e-06 1.056224360839501646e-03
7.930000000000000308e-06 7.396012414119570652e-03 6.599662989063778187e-06 1.109203753630785610e-03
9.982000000000000313e-06 9.311815711689977113e-03 8.879881089227186733e-06 1.271216815433141075e-03
1.256999999999999993e-05 1.172874412604260098e-02 1.207676739913533738e-05 1.374195438212825332e-03
1.521999999999999997e-05 1.420427250933824909e-02 1.547541302213394990e-05 1.371610497379100249e-03
1.991000000000000080e-05 1.858690797761085312e-02 2.160710455847765458e-05 1.426578142835871997e-03
2.506999999999999883e-05 2.341050104039446925e-02 2.908031724375689851e-05 1.672007475975408053e-03
2.790999999999999875e-05 2.606604784714952258e-02 3.357009132255487721e-05 1.709425557744154774e-03
3.806999999999999973e-05 3.556967988784798945e-02 4.986781576435106434e-05 1.720407281314112165e-03
5.063000000000000145e-05 4.732434580343149871e-02 7.073400252905581275e-05 1.829889149838781265e-03
6.592000000000000583e-05 6.164112392498975052e-02 9.765037643900635188e-05 1.930242980462695823e-03
8.433000000000000066e-05 7.888776783401378612e-02 1.317235490470395893e-04 2.021055815200022837e-03
1.062000000000000064e-04 9.938561165478684845e-02 1.740088341640037047e-04 2.104789529260958983e-03
1.321000000000000126e-04 1.236720406455826121e-01 2.260189757651373944e-04 2.178291718403657477e-03
1.623999999999999901e-04 1.520974545104751274e-01 2.888169908545388338e-04 2.240170365918073281e-03
1.689999999999999879e-04 1.582907717069566844e-01 3.027354772999506964e-04 2.254509350360745651e-03
1.758999999999999930e-04 1.647661861691531171e-01 3.173785841705756782e-04 2.268169273277113179e-03
1.830000000000000029e-04 1.714298948183871907e-01 3.325196584577469103e-04 2.276170334580628063e-03
1.901999999999999882e-04 1.781880600978280049e-01 3.479577791899843742e-04 2.292561569242367037e-03
1.977000000000000079e-04 1.852284385240466902e-01 3.641242634600037713e-04 2.299943765467868384e-03
2.054000000000000053e-04 1.924572004474696396e-01 3.808304060475003897e-04 2.322187632288155723e-03
2.079000000000000119e-04 1.948043378760714872e-01 3.864137987380476553e-04 2.435429768083530178e-03
2.081999999999999921e-04 1.950859988578999005e-01 3.870314100985603909e-04 1.950065624557156818e-03
2.090999999999999868e-04 1.959309855029948977e-01 3.881261957135444685e-04 6.411875526909013856e-04
2.159999999999999919e-04 2.024093317906446865e-01 3.940874488768042125e-04 1.199166870571831411e-03
2.231000000000000019e-04 2.090756740932291913e-01 4.013938420547467825e-04 9.928616047829054436e-04
2.311000000000000066e-04 2.165873044433437034e-01 4.085241694843774404e-04 9.056166966301716637e-04
2.401000000000000085e-04 2.250381721984245909e-01 4.159700687886608468e-04 8.565463878902855599e-04
2.500000000000000052e-04 2.343344406330727658e-01 4.237602369176299592e-04 8.194318812157330018e-04
2.642999999999999733e-04 2.477629128650125634e-01 4.345596643180389446e-04 7.890063723638815647e-04
3.052999999999999941e-04 2.862671839140227270e-01 4.644058706720978241e-04 7.612775562167708662e-04
3.533000000000000224e-04 3.313503829113090826e-01 4.987577676308450197e-04 7.626578558207241024e-04
4.075999999999999871e-04 3.823564017794535141e-01 5.381334366106255759e-04 7.813048116943254948e-04
4.679999999999999915e-04 4.390986251953180042e-01 5.832692638200615834e-04 8.096035963157804938e-04
5.341000000000000261e-04 5.012024644415256081e-01 6.346556894078133086e-04 8.452514814113673558e-04
6.059000000000000366e-04 5.686690698184251325e-01 6.930641302632923034e-04 8.862253587289389486e-04
7.661000000000000275e-04 7.192254882508629654e-01 8.328184776562496576e-04 9.702780530519144065e-04
1.262000000000000101e-03 1.185459127778160093e+00 1.338484980802662205e-03 1.198863597978450275e-03
1.894999999999999983e-03 1.780909071169781921e+00 2.123481960401060308e-03 1.437771491635827115e-03
2.673000000000000029e-03 2.513147344746868850e+00 3.261860252001994032e-03 1.671524566936786766e-03
3.605999999999999830e-03 3.391736073717691369e+00 4.828136641022434151e-03 1.893900408978071038e-03
4.709999999999999777e-03 4.431905410739045870e+00 6.903512974832482635e-03 2.096551352830673849e-03
7.496000000000000059e-03 7.058993649504918366e+00 1.289742191321638018e-02 2.466596387205546859e-03
1.119999999999999989e-02 1.055540362104863661e+01 2.212077014004794340e-02 2.809304433764861584e-03
1.600000000000000033e-02 1.509117352747679952e+01 3.559566804390756900e-02 3.132325055719984222e-03
2.206999999999999934e-02 2.083310616724802244e+01 5.457322122755020599e-02 3.477840948757840792e-03
2.947999999999999926e-02 2.785007348564149154e+01 8.049103664263126956e-02 3.909302116317729670e-03
4.268000000000000266e-02 4.036707211535221518e+01 1.353887601042819133e-01 4.862066536253286525e-03
6.219999999999999835e-02 5.891246509830522626e+01 2.419691225623893105e-01 6.630786177272363080e-03
7.316999999999999893e-02 6.935151695866235855e+01 3.161896974764099033e-01 7.588671314871411888e-03
7.595999999999999974e-02 7.200836722020332559e+01 3.371250777904805096e-01 8.170805199905812125e-03
7.685877551020407761e-02 7.286441674684778036e+01 3.441970129758623598e-01 8.351444625979939293e-03
7.775755102040816935e-02 7.372054984793271615e+01 3.514190406715226866e-01 8.519821789197338027e-03
7.865632653061224722e-02 7.457676723387818640e+01 3.587810038468488005e-01 8.676653421521908841e-03
7.955510204081632508e-02 7.543306948626921837e+01 3.662733554216708876e-01 8.822656254917562654e-03
8.045387755102040295e-02 7.628945706911571278e+01 3.738871584884181920e-01 8.958547021348205186e-03
8.135265306122449469e-02 7.714593033961168089e+01 3.816140865548332539e-01 9.085042452777740418e-03
8.225142857142857256e-02 7.800248955842154430e+01 3.894464238037557147e-01 9.202859281170074068e-03
8.315020408163265042e-02 7.885913489952034183e+01 3.973770653668647346e-01 9.312714238489111854e-03
8.404897959183672829e-02 7.971586645961070872e+01 4.053995176096146791e-01 9.415324056698759492e-03
8.494775510204082003e-02 8.057268426714038867e+01 4.135078984249267453e-01 9.511405467762926169e-03
8.584653061224489790e-02 8.142958829094141038e+01 4.216969375334989056e-01 9.601675203645512399e-03
8.674530612244897576e-02 8.228657844851025516e+01 4.299619767888820387e-01 9.686849996310425634e-03
8.764408163265305363e-02 8.314365461394844203e+01 4.382989704857281898e-01 9.767646577721580264e-03
8.854285714285714537e-02 8.400081662557973061e+01 4.467044856698692001e-01 9.844781679842871600e-03
8.944163265306122323e-02 8.485806429326207478e+01 4.551757024491080439e-01 9.918972034638207091e-03
9.034040816326530110e-02 8.571539740540814023e+01 4.637104143038261461e-01 9.990934374071497662e-03
9.123918367346939284e-02 8.657281573572986133e+01 4.723070283967055749e-01 1.006138543010664382e-02
9.213795918367347071e-02 8.743031904971994095e+01 4.809645658810585145e-01 1.013104193470755303e-02
9.303673469387754857e-02 8.828790711088352339e+01 4.896826622074330060e-01 1.020062061983812926e-02
9.393551020408162644e-02 8.914557968673211974e+01 4.984615674283267572e-01 1.027083821746228517e-02
9.483428571428570431e-02 9.000333655455109749e+01 5.073021465010018050e-01 1.034241145954391955e-02
9.573306122448979605e-02 9.086117750695080986e+01 5.162058795885366980e-01 1.041605707804694504e-02
9.663183673469387391e-02 9.171910235721271931e+01 5.251748623593918142e-01 1.049249180493526216e-02
9.753061224489795178e-02 9.257711094443887134e+01 5.342118062858943750e-01 1.057243237217277837e-02
9.842938775510204352e-02 9.343520313851483650e+01 5.433200389421704024e-01 1.065659551172339764e-02
9.932816326530612139e-02 9.429337884489331145e+01 5.525035043021674364e-01 1.074569795555102916e-02
1.002269387755101993e-01 9.515163800920802828e+01 5.617667630385229094e-01 1.084045643561957692e-02
1.011257142857142910e-01 9.600998062172429570e+01 5.711149928231308293e-01 1.094158768389294836e-02
1.020244897959183689e-01 9.686840672163440047e+01 5.805539886303606734e-01 1.104980843233504748e-02
1.029232653061224467e-01 9.772691640120380896e+01 5.900901630439754353e-01 1.116583541290977824e-02
1.038220408163265246e-01 9.858550980977567235e+01 5.997305465688759218e-01 1.129038535758105158e-02
1.047208163265306025e-01 9.944418715763929129e+01 6.094827879488891043e-01 1.142417499831277147e-02
1.056195918367346942e-01 1.003029487197682101e+02 6.193551544918891594e-01 1.156792106706884364e-02
1.065183673469387721e-01 1.011617948394343642e+02 6.293565324036182185e-01 1.172234029581317033e-02
1.074171428571428499e-01 1.020207259317024295e+02 6.394964271316421200e-01 1.188814941650966420e-02
1.083159183673469417e-01 1.028797424868110966e+02 6.497849637209421880e-01 1.206606516112222749e-02
1.092146938775510195e-01 1.037388450734438408e+02 6.602328871827073398e-01 1.225680426161476419e-02
1.101134693877550974e-01 1.045980343418962661e+02 6.708515628779548878e-01 1.246108344995118002e-02
1.110122448979591891e-01 1.054573110271426373e+02 6.816529769176572495e-01 1.267961945809539283e-02
1.119110204081632531e-01 1.063166759518062889e+02 6.926497365811140616e-01 1.291312901801128926e-02
1.128097959183673449e-01 1.071761300290388164e+02 7.038550707543591578e-01 1.316232886166278718e-02
1.137085714285714227e-01 1.080356742653096092e+02 7.152828303904346097e-01 1.342793572101379229e-02
1.146073469387755006e-01 1.088953097631128486e+02 7.269474889934239847e-01 1.371066632802820512e-02
1.155061224489795924e-01 1.097550377235915846e+02 7.388641431281695038e-01 1.401123741466994178e-02
1.164048979591836702e-01 1.106148594490855714e+02 7.510485129576475183e-01 1.433036571290289239e-02
1.173036734693877481e-01 1.114747763456038712e+02 7.635169428100204714e-01 1.466876795469097133e-02
1.182024489795918398e-01 1.123347899252268007e+02 7.762864017774144809e-01 1.502716087199809473e-02
1.191012244897959177e-01 1.131949018084384164e+02 7.893744843485183127e-01 1.540626119678814923e-02
1.199999999999999956e-01 1.140551137263948789e+02 8.027994110771342617e-01 1.580678566102505442e-02
1.221109981558547580e-01 1.160759421761581365e+02 8.357610235324973713e-01 1.681496294989962698e-02
1.242219963117095205e-01 1.180973583291133622e+02 8.708011459301360224e-01 1.785378008468209779e-02
1.263329944675642691e-01 1.201193880607987410e+02 9.079836362439371866e-01 1.892345940835695600e-02
1.284439926234190454e-01 1.221420574540481141e+02 9.473729540264812510e-01 2.002423252009358570e-02
1.305549907792737940e-01 1.241653927988599122e+02 9.890341854048236847e-01 2.115634024123583604e-02
1.326659889351285704e-01 1.261894205926794825e+02 1.033033068162267254e+00 2.232003257209889957e-02
1.347769870909833190e-01 1.282141675410644552e+02 1.079436016894598893e+00 2.351556864005459671e-02
1.368879852468380953e-01 1.302396605587010754e+02 1.128310148230151855e+00 2.474321663919551439e-02
1.389989834026928439e-01 1.322659267707486777e+02 1.179723306103728220e+00 2.600325376192165472e-02
1.411099815585476203e-01 1.342929935144862270e+02 1.233744087075140161e+00 2.729596612272198672e-02
1.432209797144023689e-01 1.363208883412391117e+02 1.290441865683672695e+00 2.862164867440038230e-02
1.453319778702571452e-01 1.383496390185662506e+02 1.349886819830333540e+00 2.998060511696398409e-02
1.474429760261118938e-01 1.403792735326899788e+02 1.412149956180173138e+00 3.137314779936557774e-02
1.495539741819666701e-01 1.424098200911485890e+02 1.477303135577407778e+00 3.279959761426762960e-02
1.516649723378214187e-01 1.444413071256601029e+02 1.545419098466377594e+00 3.426028388597265883e-02
1.537759704936761951e-01 1.464737632951787987e+02 1.616571490311728088e+00 3.575554425164503836e-02
1.558869686495309437e-01 1.485072174891334953e+02 1.690834887011407606e+00 3.728572453592972347e-02
1.579979668053857200e-01 1.505416988308342354e+02 1.768284820296342597e+00 3.885117861905662551e-02
1.601089649612404686e-01 1.525772366810362541e+02 1.848997803110778548e+00 4.045226829850414457e-02
1.622199631170952450e-01 1.546138606416506605e+02 1.933051354967473268e+00 4.208936314427952352e-02
1.643309612729499936e-01 1.566516005595908041e+02 2.020524027271974887e+00 4.376284034786120242e-02
1.664419594288047699e-01 1.586904865307476200e+02 2.111495428610365988e+00 4.547308456483679928e-02
1.685529575846595185e-01 1.607305489040815587e+02 2.206046249994827235e+00 4.722048775125663178e-02
1.706639557405142948e-01 1.627718182858279192e+02 2.304258290061473868e+00 4.900544899371541557e-02
1.727749538963690434e-01 1.648143255438033918e+02 2.406214480214833529e+00 5.082837433316298587e-02
1.748859520522237920e-01 1.668581018118096893e+02 2.511998909713384354e+00 5.268967658243686042e-02
1.769969502080785684e-01 1.689031784941273315e+02 2.621696850690441671e+00 5.458977513750182253e-02
1.791079483639333447e-01 1.709495872700923940e+02 2.735394783104659666e+00 5.652909578237393096e-02
1.812189465197880933e-01 1.729973600987514146e+02 2.853180419614304242e+00 5.850807048770016727e-02
1.833299446756428419e-01 1.750465292235888910e+02 2.975142730369321420e+00 6.052713720295863076e-02
1.854409428314976183e-01 1.770971271773210560e+02 3.101371967715098155e+00 6.258673964223891717e-02
1.875519409873523946e-01 1.791491867867528640e+02 3.231959690801654350e+00 6.468732706355749540e-02
1.896629391432071432e-01 1.812027411776932411e+02 3.366998790091845439e+00 6.682935404165850357e-02
1.917739372990618918e-01 1.832578237799213241e+02 3.506583511761942606e+00 6.901328023424747882e-02
1.938849354549166681e-01 1.853144683322053936e+02 3.650809481987749017e+00 7.123957014160048340e-02
1.959959336107714445e-01 1.873727088873635864e+02 3.799773731109203023e+00 7.350869285949049314e-02
1.981069317666261931e-01 1.894325798173684632e+02 3.953574717666178184e+00 7.582112182536900058e-02
2.002179299224809417e-01 1.914941158184882113e+02 4.112312352297918139e+00 7.817733455774013296e-02
2.023289280783357180e-01 1.935573519164629488e+02 4.276088021498273939e+00 8.057781238866215667e-02
2.044399262341904944e-01 1.956223234717115531e+02 4.445004611218644541e+00 8.302304018931154495e-02
2.065509243900452430e-01 1.976890661845661725e+02 4.619166530310217844e+00 8.551350608854320356e-02
2.086619225458999916e-01 1.997576161005316635e+02 4.798679733796781477e+00 8.804970118438144866e-02
2.107729207017547679e-01 2.018280096155673675e+02 4.983651745969050140e+00 9.063211924837566436e-02
2.128839188576095443e-01 2.039002834813861114e+02 5.174191683291120114e+00 9.326125642275598371e-02
2.149949170134642928e-01 2.059744748107708290e+02 5.370410277109327168e+00 9.593761091032632082e-02
2.171059151693190414e-01 2.080506210829033762e+02 5.572419896153387953e+00 9.866168265703177676e-02
2.192169133251738178e-01 2.101287601487032362e+02 5.780334568819317731e+00 1.014339730271408557e-01
2.213279114810285664e-01 2.122089302361760588e+02 5.994270005223268249e+00 1.042549844709858148e-01
2.234389096368833427e-01 2.142911699557651559e+02 6.214343619015019193e+00 1.071252201852060104e-01
3.005115849504163550e-01 2.923188116986542582e+02 1.987048961497990973e+01 2.393507466731916722e-01
3.775842602639493117e-01 3.751865865100890005e+02 4.540269383932709957e+01 3.715762731611772507e-01
4.546569355774823240e-01 4.643005811392777105e+02 8.043448241690440170e+01 4.132809839963452747e-01
5.317296108910153363e-01 5.598272431143810763e+02 1.205366917153026236e+02 4.263066206861369500e-01
6.088022862045483485e-01 6.614542510014665595e+02 1.645269997030793547e+02 4.393322573759286254e-01
6.858749615180812498e-01 7.689017996870693423e+02 2.124385856782283213e+02 4.523578940657203007e-01
7.629476368316143731e-01 8.819583246629142650e+02 2.643254000512250173e+02 4.653835307555119760e-01
8.400203121451472743e-01 1.000461485301235825e+03 3.202565723046470794e+02 4.784091674453036513e-01
9.170929874586803976e-01 1.124285766465474808e+03 3.803128748126881078e+02 4.914348041350953267e-01
9.941656627722132988e-01 1.253334029409939831e+03 4.445843857848187213e+02 5.044604408248869465e-01
1.071238338085746422e+00 1.387531544976209716e+03 5.131688907209770605e+02 5.174860775146786773e-01
1.148311013399279323e+00 1.526821654260961395e+03 5.861707591027586659e+02 5.305117142044704082e-01
1.225383688712812447e+00 1.671162534304084147e+03 6.637001381949061170e+02 5.435373508942620280e-01
1.302456364026345348e+00 1.820524736539953210e+03 7.458723650104261651e+02 5.565629875840537588e-01
1.379529039339878471e+00 1.974889279478084973e+03 8.328075323481525629e+02 5.695886242738454897e-01
1.456601714653411372e+00 2.134246147665577610e+03 9.246301661453194356e+02 5.826142609636371095e-01
1.533674389966944274e+00 2.298593094227069741e+03 1.021468984882925724e+03 5.956398976534287293e-01
1.610747065280477397e+00 2.467934674100738448e+03 1.123456720566098056e+03 6.086655343432204601e-01
1.687819740594010298e+00 2.642281455236935471e+03 1.230729986664908438e+03 6.216911710330120799e-01
1.764892415907543421e+00 2.821647748332072297e+03 1.343232241809272864e+03 6.325814564360878745e-01
1.841965091221076323e+00 3.006038590432692672e+03 1.460873412595414720e+03 6.432517428187112252e-01
1.919037766534609446e+00 3.195460394133961927e+03 1.583745593124755260e+03 6.539220292013345759e-01
1.996110441848142347e+00 3.389923437636255585e+03 1.711962918708750067e+03 6.645923155839579266e-01
2.073183117161675248e+00 3.589441667971806055e+03 1.845642313512180408e+03 6.752626019665812773e-01
