# density  energy_density  pressure   sound_speed_squared  [All in nuclear units]
2.720000000000000022e-14 2.529924618736292620e-11 1.061056609100270887e-19 3.766610435412189122e-08
1.269999999999999890e-13 1.181251617980081254e-10 4.870113551826584858e-18 6.497781477172163475e-08
6.929999999999999754e-13 6.445728594625782745e-10 1.018299070687946017e-16 3.033770597342807186e-07
6.295000000000000137e-12 5.855111460395753757e-09 5.487150723824490656e-15 1.763710043904196507e-06
1.581000000000000150e-11 1.470523320212576141e-08 2.904239460150760759e-14 3.559434472327477622e-06
3.971999999999999958e-11 3.694456170323160790e-08 1.439340266754906811e-13 6.772854871245677111e-06
9.975999999999999982e-11 9.278976412613005154e-08 6.812143616221268841e-13 1.246890511177539320e-05
2.505999999999999928e-10 2.330928829758143313e-07 3.107749196951638608e-12 2.212095130576091967e-05
6.294000000000000186e-10 5.854398883216247602e-07 1.363250409771533549e-11 3.761981047239428883e-05
1.581000000000000021e-09 1.470619631082054101e-06 5.726014178088476303e-11 6.095350986710739404e-05
3.971999999999999932e-09 3.694861084648016046e-06 2.210019573374265380e-10 8.628023653304385055e-05
5.000000000000000105e-09 4.651201787816927976e-06 3.071485916280120014e-10 9.387863480799757518e-05
9.975999999999999465e-09 9.280587964640925786e-06 8.385361004129998845e-10 1.356922228656245837e-04
1.989999999999999952e-08 1.851419242998081003e-05 2.287763168863418088e-09 1.782101978513718314e-04
3.972999999999999908e-08 3.696699295748789187e-05 6.061583099087538954e-09 2.308134738384234820e-04
7.925999999999999637e-08 7.375765469301719828e-05 1.575347858094044765e-08 2.960532096713864875e-04
1.580999999999999930e-07 1.471491184379128891e-04 3.910429618672550719e-08 3.402859755131850544e-04
1.991000000000000027e-07 1.853209783927820692e-04 5.252045687899177454e-08 3.626488188833278743e-04
3.155999999999999938e-07 2.938002528823880299e-04 9.730770378831954314e-08 4.630767356912104081e-04
5.000999999999999849e-07 4.656344063839075714e-04 1.837494945860225819e-07 5.430301232045120323e-04
6.295999999999999732e-07 5.862651417037388971e-04 2.503103884558263872e-07 5.605192962670089638e-04
9.666999999999999941e-07 9.003386739730535665e-04 4.324450868778576936e-07 5.993081670211623108e-04
1.531999999999999901e-06 1.427170885631398036e-03 7.780217275717420968e-07 7.125938556504039095e-04
2.506999999999999883e-06 2.336134972129507662e-03 1.471005394641589826e-06 8.121876172121876309e-04
3.974000000000000407e-06 3.704315759716615697e-03 2.695705763844323844e-06 9.780674166779417152e-04
4.830000000000000343e-06 4.502887798316278223e-03 3.503988717694660908e-06 1.046253037768318664e-03
6.080999999999999885e-06 5.670217999231269741e-03 4.731126407333307547e-06 1.056224360839501646e-03
7.930000000000000308e-06 7.396012414119570652e-03 6.599662989063778187e-06 1.109203753630785610e-03
9.982000000000000313e-06 9.311815711689977113e-03 8.879881089227186733e-06 1.271216815433141075e-03
1.256999999999999993e-05 1.172874412604260098e-02 1.207676739913533738e-05 1.374195438212825332e-03
1.521999999999999997e-05 1.420427250933824909e-02 1.547541302213394990e-05 1.371610497379100249e-03
1.991000000000000080e-05 1.858690797761085312e-02 2.160710455847765458e-05 1.426578142835871997e-03
2.506999999999999883e-05 2.341050104039446925e-02 2.908031724375689851e-05 1.672007475975408053e-03
2.790999999999999875e-05 2.606604784714952258e-02 3.357009132255487721e-05 1.709425557744154774e-03
3.806999999999999973e-05 3.556967988784798945e-02 4.986781576435106434e-05 1.720407281314112165e-03
5.063000000000000145e-05 4.732434580343149871e-02 7.073400252905581275e-05 1.829889149838781265e-03
6.592000000000000583e-05 6.164112392498975052e-02 9.765037643900635188e-05 1.930242980462695823e-03
8.433000000000000066e-05 7.888776783401378612e-02 1.317235490470395893e-04 2.021055815200022837e-03
1.062000000000000064e-04 9.938561165478684845e-02 1.740088341640037047e-04 2.104789529260958983e-03
1.321000000000000126e-04 1.236720406455826121e-01 2.260189757651373944e-04 2.178291718403657477e-03
1.623999999999999901e-04 1.520974545104751274e-01 2.888169908545388338e-04 2.240170365918073281e-03
1.689999999999999879e-04 1.582907717069566844e-01 3.027354772999506964e-04 2.254509350360745651e-03
1.758999999999999930e-04 1.647661861691531171e-01 3.173785841705756782e-04 2.268169273277113179e-03
1.830000000000000029e-04 1.714298948183871907e-01 3.325196584577469103e-04 2.276170334580628063e-03
1.901999999999999882e-04 1.781880600978280049e-01 3.479577791899843742e-04 2.292561569242367037e-03
1.977000000000000079e-04 1.852284385240466902e-01 3.641242634600037713e-04 2.299943765467868384e-03
2.054000000000000053e-04 1.924572004474696396e-01 3.808304060475003897e-04 2.322187632288155723e-03
2.079000000000000119e-04 1.948043378760714872e-01 3.864137987380476553e-04 2.435429768083530178e-03
2.081999999999999921e-04 1.950859988578999005e-01 3.870314100985603909e-04 1.950065624557156818e-03
2.090999999999999868e-04 1.959309855029948977e-01 3.881261957135444685e-04 6.411875526909013856e-04
2.159999999999999919e-04 2.024093317906446865e-01 3.940874488768042125e-04 1.199166870571831411e-03
2.231000000000000019e-04 2.090756740932291913e-01 4.013938420547467825e-04 9.928616047829054436e-04
2.311000000000000066e-04 2.165873044433437034e-01 4.085241694843774404e-04 9.056166966301716637e-04
2.401000000000000085e-04 2.250381721984245909e-01 4.159700687886608468e-04 8.565463878902855599e-04
2.500000000000000052e-04 2.343344406330727658e-01 4.237602369176299592e-04 8.194318812157330018e-04
2.642999999999999733e-04 2.477629128650125634e-01 4.345596643180389446e-04 7.890063723638815647e-04
3.052999999999999941e-04 2.862671839140227270e-01 4.644058706720978241e-04 7.612775562167708662e-04
3.533000000000000224e-04 3.313503829113090826e-01 4.987577676308450197e-04 7.626578558207241024e-04
4.075999999999999871e-04 3.823564017794535141e-01 5.381334366106255759e-04 7.813048116943254948e-04
4.679999999999999915e-04 4.390986251953180042e-01 5.832692638200615834e-04 8.096035963157804938e-04
5.341000000000000261e-04 5.012024644415256081e-01 6.346556894078133086e-04 8.452514814113673558e-04
6.059000000000000366e-04 5.686690698184251325e-01 6.930641302632923034e-04 8.862253587289389486e-04
7.661000000000000275e-04 7.192254882508629654e-01 8.328184776562496576e-04 9.702780530519144065e-04
1.262000000000000101e-03 1.185459127778160093e+00 1.338484980802662205e-03 1.198863597978450275e-03
1.894999999999999983e-03 1.780909071169781921e+00 2.123481960401060308e-03 1.437771491635827115e-03
2.673000000000000029e-03 2.513147344746868850e+00 3.261860252001994032e-03 1.671524566936786766e-03
3.605999999999999830e-03 3.391736073717691369e+00 4.828136641022434151e-03 1.893900408978071038e-03
4.709999999999999777e-03 4.431905410739045870e+00 6.903512974832482635e-03 2.096551352830673849e-03
7.496000000000000059e-03 7.058993649504918366e+00 1.289742191321638018e-02 2.466596387205546859e-03
1.119999999999999989e-02 1.055540362104863661e+01 2.212077014004794340e-02 2.809304433764861584e-03
1.600000000000000033e-02 1.509117352747679952e+01 3.559566804390756900e-02 3.132325055719984222e-03
2.206999999999999934e-02 2.083310616724802244e+01 5.457322122755020599e-02 3.477840948757840792e-03
2.947999999999999926e-02 2.785007348564149154e+01 8.049103664263126956e-02 3.909302116317729670e-03
4.268000000000000266e-02 4.036707211535221518e+01 1.353887601042819133e-01 4.862066536253286525e-03
6.219999999999999835e-02 5.891246509830522626e+01 2.419691225623893105e-01 6.630786177272363080e-03
7.316999999999999893e-02 6.935151695866235855e+01 3.161896974764099033e-01 7.588671314871411888e-03
7.595999999999999974e-02 7.200836722020332559e+01 3.371250777904805096e-01 8.170805199905810390e-03
7.685877551020407761e-02 7.286441682502037054e+01 3.442103908700455683e-01 8.382696523291021870e-03
7.775755102040816935e-02 7.372055036651927651e+01 3.514812107354373660e-01 8.602541230078834464e-03
7.865632653061224722e-02 7.457676905741421081e+01 3.589442507235706681e-01 8.830004598700102320e-03
7.955510204081632508e-02 7.543307415780650160e+01 3.666059407739223341e-01 9.064751907585695198e-03
8.045387755102040295e-02 7.628946697037557101e+01 3.744724273688704863e-01 9.306448435166475922e-03
8.135265306122449469e-02 7.714594883578511997e+01 3.825495734693235006e-01 9.554759459873312516e-03
8.225142857142857256e-02 7.800252112829095097e+01 3.908429584450635041e-01 9.809350260137057395e-03
8.315020408163265042e-02 7.885918525154022518e+01 3.993578779993013361e-01 1.006988611438858205e-02
8.404897959183672829e-02 7.971594263455179430e+01 4.080993440870014921e-01 1.033603230105874758e-02
8.494775510204082003e-02 8.057279472786689212e+01 4.170720848266006309e-01 1.060745409857842200e-02
8.584653061224489790e-02 8.142974299986229880e+01 4.262805444047957359e-01 1.088381678537845947e-02
8.674530612244897576e-02 8.228678893321699661e+01 4.357288829741352010e-01 1.116478563988972973e-02
8.764408163265305363e-02 8.314393402152347790e+01 4.454209765431899615e-01 1.145002594054309736e-02
8.854285714285714537e-02 8.400117976603780789e+01 4.553604168591328660e-01 1.173920296576942864e-02
8.944163265306122323e-02 8.485852767255964579e+01 4.655505112825939484e-01 1.203198199399957424e-02
9.034040816326530110e-02 8.571597924843686656e+01 4.759942826547026162e-01 1.232802830366440915e-02
9.123918367346939284e-02 8.657353599968783442e+01 4.866944691562616887e-01 1.262700717319479443e-02
9.213795918367347071e-02 8.743119942823553004e+01 4.976535241590362424e-01 1.292858388102159292e-02
9.303673469387754857e-02 8.828897102924861429e+01 5.088736160691748056e-01 1.323242370557566397e-02
9.393551020408162644e-02 8.914685228858300547e+01 5.203566281628060342e-01 1.353819192528787907e-02
9.483428571428570431e-02 9.000484468032020402e+01 5.321041584138895830e-01 1.384555381858909064e-02
9.573306122448979605e-02 9.086294966439739085e+01 5.441175193144230926e-01 1.415417466391017884e-02
9.663183673469387391e-02 9.172116868432433989e+01 5.563977376871351854e-01 1.446371973968199262e-02
9.753061224489795178e-02 9.257950316498366305e+01 5.689455544908187390e-01 1.477385432433539654e-02
9.842938775510204352e-02 9.343795451051096279e+01 5.817614246184800164e-01 1.508424369630126730e-02
9.932816326530612139e-02 9.429652410224917958e+01 5.948455166885016077e-01 1.539455313401045210e-02
1.002269387755101993e-01 9.515521329677652318e+01 6.081977128290418921e-01 1.570444791589382244e-02
1.011257142857142910e-01 9.601402342400234602e+01 6.218176084559041694e-01 1.601359332038224462e-02
1.020244897959183689e-01 9.687295578532864226e+01 6.357045120441349173e-01 1.632165462590657451e-02
1.029232653061224467e-01 9.773201165187492734e+01 6.498574448936270676e-01 1.662829711089767667e-02
1.038220408163265246e-01 9.859119226276237669e+01 6.642751408890137377e-01 1.693318605378641567e-02
1.047208163265306025e-01 9.945049882345561798e+01 6.789560462541633923e-01 1.723598673300365952e-02
1.056195918367346942e-01 1.003099325041594909e+02 6.938983193015948459e-01 1.753636442698027278e-02
1.065183673469387721e-01 1.011694944382676482e+02 7.090998301771463952e-01 1.783398441414710961e-02
1.074171428571428499e-01 1.020291857208620456e+02 7.245581606002509112e-01 1.812851197293504149e-02
1.083159183673469417e-01 1.028890074072600527e+02 7.402706036001733825e-01 1.841961238177492952e-02
1.092146938775510195e-01 1.037489605116074216e+02 7.562341632485857224e-01 1.870695091909763130e-02
1.101134693877550974e-01 1.046090460055159497e+02 7.724455543888664177e-01 1.899019286333402529e-02
1.110122448979591891e-01 1.054692648167425517e+02 7.889012023625158188e-01 1.926900349291495868e-02
1.119110204081632531e-01 1.063296178279101696e+02 8.055972427330942987e-01 1.954304808627129603e-02
1.128097959183673449e-01 1.071901058752658571e+02 8.225295210081051689e-01 1.981199192183391924e-02
1.137085714285714227e-01 1.080507297474777175e+02 8.396935923592357964e-01 2.007550027803367207e-02
1.146073469387755006e-01 1.089114901844668708e+02 8.570847213414062304e-01 2.033323843330142253e-02
1.155061224489795924e-01 1.097723878762741379e+02 8.746978816110573263e-01 2.058487166606804905e-02
1.164048979591836702e-01 1.106334234619594810e+02 8.925277556441346682e-01 2.083006525476439538e-02
1.173036734693877481e-01 1.114945975285337312e+02 9.105687344542309214e-01 2.106848447782132608e-02
1.182024489795918398e-01 1.123559106099205849e+02 9.288149173113481316e-01 2.129979461366971957e-02
1.191012244897959177e-01 1.132173631859480878e+02 9.472601114617584805e-01 2.152366094074042654e-02
1.199999999999999956e-01 1.140789556813685834e+02 9.658978318494472193e-01 2.173974873746432196e-02
1.209253597320917306e-01 1.149661791762376311e+02 9.852816383951589208e-01 2.195566854129082923e-02
1.218507194641834518e-01 1.158535517475838788e+02 1.004860390728155695e+00 2.217178550503872553e-02
1.227760791962751868e-01 1.167410737446650160e+02 1.024634328983016429e+00 2.238808377240648906e-02
1.237014389283669219e-01 1.176287455132322179e+02 1.044603679540075936e+00 2.260454768641434464e-02
1.246267986604586570e-01 1.185165673955062431e+02 1.064768655188578661e+00 2.282116178676503460e-02
1.255521583925503781e-01 1.194045397301560456e+02 1.085129455287538347e+00 2.303791080708111200e-02
1.264775181246421132e-01 1.202926628522792782e+02 1.105686265924201717e+00 2.325477967202139312e-02
1.274028778567338482e-01 1.211809370933830934e+02 1.126439260070000392e+00 2.347175349427784927e-02
1.283282375888255833e-01 1.220693627813685822e+02 1.147388597733895121e+00 2.368881757145578290e-02
1.292535973209173183e-01 1.229579402405157396e+02 1.168534426113001734e+00 2.390595738283780858e-02
1.301789570530090256e-01 1.238466697914695800e+02 1.189876879740398907e+00 2.412315858603432048e-02
1.311043167851007607e-01 1.247355517512285701e+02 1.211416080630018044e+00 2.434040701352132435e-02
1.320296765171924958e-01 1.256245864331338709e+02 1.233152138418506016e+00 2.455768866906686554e-02
1.329550362492842308e-01 1.265137741468597739e+02 1.255085150503974400e+00 2.477498972404890837e-02
1.338803959813759659e-01 1.274031151984060983e+02 1.277215202181527953e+00 2.499229651366422292e-02
1.348057557134677009e-01 1.282926098900903469e+02 1.299542366775476188e+00 2.520959553303032952e-02
1.357311154455594360e-01 1.291822585205426606e+02 1.322066705768134565e+00 2.542687343318233290e-02
1.366564751776511433e-01 1.300720613847002483e+02 1.344788268925115604e+00 2.564411701696449331e-02
1.375818349097428783e-01 1.309620187738039760e+02 1.367707094417022429e+00 2.586131323481873773e-02
1.385071946418346134e-01 1.318521309753951130e+02 1.390823208937436606e+00 2.607844918047044769e-02
1.394325543739263484e-01 1.327423982733130003e+02 1.414136627817124570e+00 2.629551208651324107e-02
1.403579141060180835e-01 1.336328209476944266e+02 1.437647355134357152e+00 2.651248931989282076e-02
1.412832738381098185e-01 1.345233992749719789e+02 1.461355383821254961e+00 2.672936837729163878e-02
1.422086335702015258e-01 1.354141335278750660e+02 1.485260695766066563e+00 2.694613688041458399e-02
1.431339933022932609e-01 1.363050239754301742e+02 1.509363261911293552e+00 2.716278257117718531e-02
1.440593530343849960e-01 1.371960708829624025e+02 1.533663042347561456e+00 2.737929330679650733e-02
1.449847127664767310e-01 1.380872745120973661e+02 1.558159986403159447e+00 2.759565705478595268e-02
1.459100724985684661e-01 1.389786351207633572e+02 1.582854032729150928e+00 2.781186188785459909e-02
1.468354322306602011e-01 1.398701529631946414e+02 1.607745109379969284e+00 2.802789597871171989e-02
1.477607919627519362e-01 1.407618282899345843e+02 1.632833133889410204e+00 2.824374759477726871e-02
1.486861516948436712e-01 1.416536613478393178e+02 1.658118013341931984e+00 2.845940509279912614e-02
1.496115114269353785e-01 1.425456523800815489e+02 1.683599644439176313e+00 2.867485691337733761e-02
1.505368711590271136e-01 1.434378016261551920e+02 1.709277913561626283e+00 2.889009157539667097e-02
1.514622308911188486e-01 1.443301093218798599e+02 1.735152696825304597e+00 2.910509767036745590e-02
1.523875906232105837e-01 1.452225756994055530e+02 1.761223860133439123e+00 2.931986385667577702e-02
1.533129503553023187e-01 1.461152009872178894e+02 1.787491259223000339e+00 2.953437885374343708e-02
1.542383100873940538e-01 1.470079854101427372e+02 1.813954739706028718e+00 2.974863143609827662e-02
1.551636698194857611e-01 1.479009291893518707e+02 1.840614137105664572e+00 2.996261042735543639e-02
1.560890295515774961e-01 1.487940325423683134e+02 1.867469276886801310e+00 3.017630469411047844e-02
1.570143892836692312e-01 1.496872956830711701e+02 1.894519974481265967e+00 3.038970313974422716e-02
1.579397490157609663e-01 1.505807188217016517e+02 1.921766035307457487e+00 3.060279469814074921e-02
1.588651087478527013e-01 1.514743021648678791e+02 1.949207254784347310e+00 3.081556832731840653e-02
1.597904684799444364e-01 1.523680459155502263e+02 1.976843418339765401e+00 3.102801300297499190e-02
1.607158282120361714e-01 1.532619502731069758e+02 2.004674301412884940e+00 3.124011771194729059e-02
1.616411879441279065e-01 1.541560154332784975e+02 2.032699669450824587e+00 3.145187144558563713e-02
1.625665476762196138e-01 1.550502415881929039e+02 2.060919277899286417e+00 3.166326319304439696e-02
1.634919074083113488e-01 1.559446289263705978e+02 2.089332872187149803e+00 3.187428193448860192e-02
1.644172671404030839e-01 1.568391776327285072e+02 2.117940187704929755e+00 3.208491663421750989e-02
1.653426268724948189e-01 1.577338878885844338e+02 2.146740949777032448e+00 3.229515623370590033e-02
2.436009406097908447e-01 2.346478347164304523e+02 8.523055410308032265e+00 1.319602369620737348e-01
3.218592543470868428e-01 3.147869749210510122e+02 2.319473160841977233e+01 2.316253176904415345e-01
4.001175680843829241e-01 3.995183669800780990e+02 4.718442484097110423e+01 3.312903984188094175e-01
4.783758818216788944e-01 4.898909005255280817e+02 8.180946582377291065e+01 4.309554791471771895e-01
5.566341955589749757e-01 5.867679673862978689e+02 1.266641053732535482e+02 4.925482208737871348e-01
6.348925092962709460e-01 6.905771729345570975e+02 1.806466105669471744e+02 5.453165295482852448e-01
7.131508230335669163e-01 8.016063662659535112e+02 2.442475695087452436e+02 5.980848382227833548e-01
7.914091367708629976e-01 9.198985063981165240e+02 3.068026947781164040e+02 4.655267367010388346e-01
8.696674505081590789e-01 1.043760575154235767e+03 3.575549250622630097e+02 3.571395660071503553e-01
9.479257642454550492e-01 1.172023622014185321e+03 4.098419759182140183e+02 4.559065015792816422e-01
1.026184077982751131e+00 1.305183250872433518e+03 4.773114299305831878e+02 5.546734371514130402e-01
1.104442391720047212e+00 1.444075920794128251e+03 5.614404124395790632e+02 6.534403727235444936e-01
1.182700705457343293e+00 1.589288545634792172e+03 6.450280157437314301e+02 5.026766572574546954e-01
1.260959019194639152e+00 1.739326144845716954e+03 7.075249131695132974e+02 3.337112107671808547e-01
1.339217332931935234e+00 1.892827515619413589e+03 7.633209945017325708e+02 3.924606966537029784e-01
1.417475646669231315e+00 2.049885193016019002e+03 8.297928926479926304e+02 4.530479892780082118e-01
1.495733960406527396e+00 2.210914000283750738e+03 9.077118786088730076e+02 5.136352819023134453e-01
1.573992274143823478e+00 2.376322672021001836e+03 9.977823004850478128e+02 5.742225745266187342e-01
1.652250587881119337e+00 2.546486631276663957e+03 1.097641921415016441e+03 5.989937124019748538e-01
1.730508901618415418e+00 2.721530181174699464e+03 1.202791615852720952e+03 6.024240955912065765e-01
1.808767215355711500e+00 2.901408837866540125e+03 1.311463195410260596e+03 6.058544787804381881e-01
1.887025529093007359e+00 3.086065711428338545e+03 1.423655233816073860e+03 6.092848619696699108e-01
1.965283842830303440e+00 3.275448623018010949e+03 1.539368602771585529e+03 6.127152451589016335e-01
2.043542156567599299e+00 3.469509628504139073e+03 1.658606243022923991e+03 6.161456283481333562e-01
