# density  energy_density  pressure   sound_speed_squared  [All in nuclear units]
2.720000000000000022e-14 2.529924618736292620e-11 1.061056609100270887e-19 3.766610435412189122e-08
1.269999999999999890e-13 1.181251617980081254e-10 4.870113551826584858e-18 6.497781477172163475e-08
6.929999999999999754e-13 6.445728594625782745e-10 1.018299070687946017e-16 3.033770597342807186e-07
6.295000000000000137e-12 5.855111460395753757e-09 5.487150723824490656e-15 1.763710043904196507e-06
1.581000000000000150e-11 1.470523320212576141e-08 2.904239460150760759e-14 3.559434472327477622e-06
3.971999999999999958e-11 3.694456170323160790e-08 1.439340266754906811e-13 6.772854871245677111e-06
9.975999999999999982e-11 9.278976412613005154e-08 6.812143616221268841e-13 1.246890511177539320e-05
2.505999999999999928e-10 2.330928829758143313e-07 3.107749196951638608e-12 2.212095130576091967e-05
6.294000000000000186e-10 5.854398883216247602e-07 1.363250409771533549e-11 3.761981047239428883e-05
1.581000000000000021e-09 1.470619631082054101e-06 5.726014178088476303e-11 6.095350986710739404e-05
3.971999999999999932e-09 3.694861084648016046e-06 2.210019573374265380e-10 8.628023653304385055e-05
5.000000000000000105e-09 4.651201787816927976e-06 3.071485916280120014e-10 9.387863480799757518e-05
9.975999999999999465e-09 9.280587964640925786e-06 8.385361004129998845e-10 1.356922228656245837e-04
1.989999999999999952e-08 1.851419242998081003e-05 2.287763168863418088e-09 1.782101978513718314e-04
3.972999999999999908e-08 3.696699295748789187e-05 6.061583099087538954e-09 2.308134738384234820e-04
7.925999999999999637e-08 7.375765469301719828e-05 1.575347858094044765e-08 2.960532096713864875e-04
1.580999999999999930e-07 1.471491184379128891e-04 3.910429618672550719e-08 3.402859755131850544e-04
1.991000000000000027e-07 1.853209783927820692e-04 5.252045687899177454e-08 3.626488188833278743e-04
3.155999999999999938e-07 2.938002528823880299e-04 9.730770378831954314e-08 4.630767356912104081e-04
5.000999999999999849e-07 4.656344063839075714e-04 1.837494945860225819e-07 5.430301232045120323e-04
6.295999999999999732e-07 5.862651417037388971e-04 2.503103884558263872e-07 5.605192962670089638e-04
9.666999999999999941e-07 9.003386739730535665e-04 4.324450868778576936e-07 5.993081670211623108e-04
1.531999999999999901e-06 1.427170885631398036e-03 7.780217275717420968e-07 7.125938556504039095e-04
2.506999999999999883e-06 2.336134972129507662e-03 1.471005394641589826e-06 8.121876172121876309e-04
3.974000000000000407e-06 3.704315759716615697e-03 2.695705763844323844e-06 9.780674166779417152e-04
4.830000000000000343e-06 4.502887798316278223e-03 3.503988717694660908e-06 1.046253037768318664e-03
6.080999999999999885e-06 5.670217999231269741e-03 4.731126407333307547e-06 1.056224360839501646e-03
7.930000000000000308e-06 7.396012414119570652e-03 6.599662989063778187e-06 1.109203753630785610e-03
9.982000000000000313e-06 9.311815711689977113e-03 8.879881089227186733e-06 1.271216815433141075e-03
1.256999999999999993e-05 1.172874412604260098e-02 1.207676739913533738e-05 1.374195438212825332e-03
1.521999999999999997e-05 1.420427250933824909e-02 1.547541302213394990e-05 1.371610497379100249e-03
1.991000000000000080e-05 1.858690797761085312e-02 2.160710455847765458e-05 1.426578142835871997e-03
2.506999999999999883e-05 2.341050104039446925e-02 2.908031724375689851e-05 1.672007475975408053e-03
2.790999999999999875e-05 2.606604784714952258e-02 3.357009132255487721e-05 1.709425557744154774e-03
3.806999999999999973e-05 3.556967988784798945e-02 4.986781576435106434e-05 1.720407281314112165e-03
5.063000000000000145e-05 4.732434580343149871e-02 7.073400252905581275e-05 1.829889149838781265e-03
6.592000000000000583e-05 6.164112392498975052e-02 9.765037643900635188e-05 1.930242980462695823e-03
8.433000000000000066e-05 7.888776783401378612e-02 1.317235490470395893e-04 2.021055815200022837e-03
1.062000000000000064e-04 9.938561165478684845e-02 1.740088341640037047e-04 2.104789529260958983e-03
1.321000000000000126e-04 1.236720406455826121e-01 2.260189757651373944e-04 2.178291718403657477e-03
1.623999999999999901e-04 1.520974545104751274e-01 2.888169908545388338e-04 2.240170365918073281e-03
1.689999999999999879e-04 1.582907717069566844e-01 3.027354772999506964e-04 2.254509350360745651e-03
1.758999999999999930e-04 1.647661861691531171e-01 3.173785841705756782e-04 2.268169273277113179e-03
1.830000000000000029e-04 1.714298948183871907e-01 3.325196584577469103e-04 2.276170334580628063e-03
1.901999999999999882e-04 1.781880600978280049e-01 3.479577791899843742e-04 2.292561569242367037e-03
1.977000000000000079e-04 1.852284385240466902e-01 3.641242634600037713e-04 2.299943765467868384e-03
2.054000000000000053e-04 1.924572004474696396e-01 3.808304060475003897e-04 2.322187632288155723e-03
2.079000000000000119e-04 1.948043378760714872e-01 3.864137987380476553e-04 2.435429768083530178e-03
2.081999999999999921e-04 1.950859988578999005e-01 3.870314100985603909e-04 1.950065624557156818e-03
2.090999999999999868e-04 1.959309855029948977e-01 3.881261957135444685e-04 6.411875526909013856e-04
2.159999999999999919e-04 2.024093317906446865e-01 3.940874488768042125e-04 1.199166870571831411e-03
2.231000000000000019e-04 2.090756740932291913e-01 4.013938420547467825e-04 9.928616047829054436e-04
2.311000000000000066e-04 2.165873044433437034e-01 4.085241694843774404e-04 9.056166966301716637e-04
2.401000000000000085e-04 2.250381721984245909e-01 4.159700687886608468e-04 8.565463878902855599e-04
2.500000000000000052e-04 2.343344406330727658e-01 4.237602369176299592e-04 8.194318812157330018e-04
2.642999999999999733e-04 2.477629128650125634e-01 4.345596643180389446e-04 7.890063723638815647e-04
3.052999999999999941e-04 2.862671839140227270e-01 4.644058706720978241e-04 7.612775562167708662e-04
3.533000000000000224e-04 3.313503829113090826e-01 4.987577676308450197e-04 7.626578558207241024e-04
4.075999999999999871e-04 3.823564017794535141e-01 5.381334366106255759e-04 7.813048116943254948e-04
4.679999999999999915e-04 4.390986251953180042e-01 5.832692638200615834e-04 8.096035963157804938e-04
5.341000000000000261e-04 5.012024644415256081e-01 6.346556894078133086e-04 8.452514814113673558e-04
6.059000000000000366e-04 5.686690698184251325e-01 6.930641302632923034e-04 8.862253587289389486e-04
7.661000000000000275e-04 7.192254882508629654e-01 8.328184776562496576e-04 9.702780530519144065e-04
1.262000000000000101e-03 1.185459127778160093e+00 1.338484980802662205e-03 1.198863597978450275e-03
1.894999999999999983e-03 1.780909071169781921e+00 2.123481960401060308e-03 1.437771491635827115e-03
2.673000000000000029e-03 2.513147344746868850e+00 3.261860252001994032e-03 1.671524566936786766e-03
3.605999999999999830e-03 3.391736073717691369e+00 4.828136641022434151e-03 1.893900408978071038e-03
4.709999999999999777e-03 4.431905410739045870e+00 6.903512974832482635e-03 2.096551352830673849e-03
7.496000000000000059e-03 7.058993649504918366e+00 1.289742191321638018e-02 2.466596387205546859e-03
1.119999999999999989e-02 1.055540362104863661e+01 2.212077014004794340e-02 2.809304433764861584e-03
1.600000000000000033e-02 1.509117352747679952e+01 3.559566804390756900e-02 3.132325055719984222e-03
2.206999999999999934e-02 2.083310616724802244e+01 5.457322122755020599e-02 3.477840948757840792e-03
2.947999999999999926e-02 2.785007348564149154e+01 8.049103664263126956e-02 3.909302116317729670e-03
4.268000000000000266e-02 4.036707211535221518e+01 1.353887601042819133e-01 4.862066536253286525e-03
6.219999999999999835e-02 5.891246509830522626e+01 2.419691225623893105e-01 6.630786177272363080e-03
7.316999999999999893e-02 6.935151695866235855e+01 3.161896974764099033e-01 7.588671314871411888e-03
7.595999999999999974e-02 7.200836722020332559e+01 3.371250777904805096e-01 8.170805199905812125e-03
7.685877551020407761e-02 7.286441679142221517e+01 3.442046410677450097e-01 8.369264498058718790e-03
7.775755102040816935e-02 7.372055014334948453e+01 3.514544409312680973e-01 8.566873638498784249e-03
7.865632653061224722e-02 7.457676827136775444e+01 3.588737860041847916e-01 8.763620326486464343e-03
7.955510204081632508e-02 7.543307214015048601e+01 3.664619744805441837e-01 8.959492267282240935e-03
8.045387755102040295e-02 7.628946268458493307e+01 3.742182941002781815e-01 9.154477166146571601e-03
8.135265306122449469e-02 7.714594081065345677e+01 3.821420221248365001e-01 9.348562728339933001e-03
8.225142857142857256e-02 7.800250739627588814e+01 3.902324253134550891e-01 9.541736659122780975e-03
8.315020408163265042e-02 7.885916329211427467e+01 3.984887599000306313e-01 9.733986663755595653e-03
8.404897959183672829e-02 7.971590932234352067e+01 4.069102715705708584e-01 9.925300447498832876e-03
8.494775510204082003e-02 8.057274628538765171e+01 4.154961954411969804e-01 1.011566571561297451e-02
8.584653061224489790e-02 8.142967495462571037e+01 4.242457560366726388e-01 1.030507017335847292e-02
8.674530612244897576e-02 8.228669607906724082e+01 4.331581672694386209e-01 1.049350152599580650e-02
8.764408163265305363e-02 8.314381038399982060e+01 4.422326324191298008e-01 1.068094747878543804e-02
8.854285714285714537e-02 8.400101857160971974e+01 4.514683441125561525e-01 1.086739573698783726e-02
8.944163265306122323e-02 8.485832132157710817e+01 4.608644843041279637e-01 1.105283400586347213e-02
9.034040816326530110e-02 8.571571929164753101e+01 4.704202242567092629e-01 1.123724999067280718e-02
9.123918367346939284e-02 8.657321311817989340e+01 4.801347245228810290e-01 1.142063139667631559e-02
9.213795918367347071e-02 8.743080341667280209e+01 4.900071349265995857e-01 1.160296592913445668e-02
9.303673469387754857e-02 8.828849078227084135e+01 5.000365945452369676e-01 1.178424129330770884e-02
9.393551020408162644e-02 8.914627579024987369e+01 5.102222316919865497e-01 1.196444519445653484e-02
9.483428571428570431e-02 9.000415899648500329e+01 5.205631638986241150e-01 1.214356533784139401e-02
9.573306122448979605e-02 9.086214093789934054e+01 5.310584978986102600e-01 1.232158942872276820e-02
9.663183673469387391e-02 9.172022213289687897e+01 5.417073296105227032e-01 1.249850517236111500e-02
9.753061224489795178e-02 9.257840308177814848e+01 5.525087441218101691e-01 1.267430027401690931e-02
9.842938775510204352e-02 9.343668426714107511e+01 5.634618156728542493e-01 1.284896243895061740e-02
9.932816326530612139e-02 9.429506615426697635e+01 5.745656076413314661e-01 1.302247937242270032e-02
1.002269387755101993e-01 9.515354919149187651e+01 5.858191725268677708e-01 1.319483877969363297e-02
1.011257142857142910e-01 9.601213381056508922e+01 5.972215519359742597e-01 1.336602836602388163e-02
1.020244897959183689e-01 9.687082042699458384e+01 6.087717765672573389e-01 1.353603583667390559e-02
1.029232653061224467e-01 9.772960944037991737e+01 6.204688661968975616e-01 1.370484889690418324e-02
1.038220408163265246e-01 9.858850123473369820e+01 6.323118296643865932e-01 1.387245525197517912e-02
1.047208163265306025e-01 9.944749617879169534e+01 6.442996648585183062e-01 1.403884260714735946e-02
1.056195918367346942e-01 1.003065946263119059e+02 6.564313587036265663e-01 1.420399866768119745e-02
1.065183673469387721e-01 1.011657969163639592e+02 6.687058871460633824e-01 1.436791113883715415e-02
1.074171428571428499e-01 1.020251033736080615e+02 6.811222151409135339e-01 1.453056772587569753e-02
1.083159183673469417e-01 1.028845143085645475e+02 6.936792966389381254e-01 1.469195613405729732e-02
1.092146938775510195e-01 1.037440300178745929e+02 7.063760745737424074e-01 1.485206406864242323e-02
1.101134693877550974e-01 1.046036507845524710e+02 7.192114808491660849e-01 1.501087923489153805e-02
1.110122448979591891e-01 1.054633768782287575e+02 7.321844363268867895e-01 1.516838933806511497e-02
1.119110204081632531e-01 1.063232085553859321e+02 7.452938508142358254e-01 1.532458208342361849e-02
1.128097959183673449e-01 1.071831460595869316e+02 7.585386230522235262e-01 1.547944517622751488e-02
1.137085714285714227e-01 1.080431896216948928e+02 7.719176407037638965e-01 1.563296632173727385e-02
1.146073469387755006e-01 1.089033394600875084e+02 7.854297803421040891e-01 1.578513322521336512e-02
1.155061224489795924e-01 1.097635957808631701e+02 7.990739074394482833e-01 1.593593359191625147e-02
1.164048979591836702e-01 1.106239587780415548e+02 8.128488763557749630e-01 1.608535512710640783e-02
1.173036734693877481e-01 1.114844286337572896e+02 8.267535303278471526e-01 1.623338553604429177e-02
1.182024489795918398e-01 1.123450055184482324e+02 8.407867014584089471e-01 1.638001252399038515e-02
1.191012244897959177e-01 1.132056895910371139e+02 8.549472107055670067e-01 1.652522379620514209e-02
1.199999999999999956e-01 1.140664809991087765e+02 8.692338678723573464e-01 1.666900705794903750e-02
1.237624143622849254e-01 1.176710616376436036e+02 9.304245175141752089e-01 1.728248056986544240e-02
1.275248287245698553e-01 1.212775393323052100e+02 9.940484791912171936e-01 1.800053119517852976e-02
1.312872430868547990e-01 1.248859355921060512e+02 1.060495360724823311e+00 1.882832890139649398e-02
1.350496574491397428e-01 1.284962821325042057e+02 1.130173859625744459e+00 1.977079986742754508e-02
1.388120718114246865e-01 1.321086205430387395e+02 1.203510976250935061e+00 2.083262989406815466e-02
1.425744861737096025e-01 1.357230019699594266e+02 1.280951247352745126e+00 2.201826699718041624e-02
1.463369005359945463e-01 1.393394868123777144e+02 1.362955997547230069e+00 2.333192328793606135e-02
1.500993148982794900e-01 1.429581444306329843e+02 1.450002606475656819e+00 2.477757623357423195e-02
1.538617292605644060e-01 1.465790528657121001e+02 1.542583789650178616e+00 2.635896938270337192e-02
1.576241436228493498e-01 1.502022985686812717e+02 1.641206891165150283e+00 2.807961263102014965e-02
1.613865579851342935e-01 1.538279761392019509e+02 1.746393186623234728e+00 2.994278209621972775e-02
1.651489723474192095e-01 1.574561880722905300e+02 1.858677194773280750e+00 3.195151966465722970e-02
1.689113867097041533e-01 1.610870445125666777e+02 1.978605996487403207e+00 3.410863226685254684e-02
1.726738010719890970e-01 1.647206630153063145e+02 2.106738559820008572e+00 3.641669093408742702e-02
1.764362154342740130e-01 1.683571683136771640e+02 2.243645069993527308e+00 3.887802968403038933e-02
1.801986297965589567e-01 1.719966920915933599e+02 2.389906263245888507e+00 4.149474427945309268e-02
1.839610441588439005e-01 1.756393727616708702e+02 2.546112763554742919e+00 4.426869090060498585e-02
1.877234585211288165e-01 1.792853552478138681e+02 2.712864421324317377e+00 4.720148476863000875e-02
1.914858728834137602e-01 1.829347907719977968e+02 2.890769653183534960e+00 5.029449875448886026e-02
1.952482872456987040e-01 1.865878366448513930e+02 3.080444782099625911e+00 5.354886200515143746e-02
1.990107016079836200e-01 1.902446560596716836e+02 3.282513377060716220e+00 5.696545861631165109e-02
2.027731159702685637e-01 1.939054178895302698e+02 3.497605591624397103e+00 6.054492637851650177e-02
2.065355303325535075e-01 1.975702964871610448e+02 3.726357500667746958e+00 6.428765562137332690e-02
2.102979446948384235e-01 2.012394714873328780e+02 3.969410434708276370e+00 6.819378817837813689e-02
2.140603590571233672e-01 2.049131276114406148e+02 4.227410311195133552e+00 7.226321649287889559e-02
2.178227734194083109e-01 2.085914544740585939e+02 4.501006962196191452e+00 7.649558288373450865e-02
2.215851877816932269e-01 2.122746463912206423e+02 4.790853457929732606e+00 8.089027898734470201e-02
2.253476021439781707e-01 2.159629021902062505e+02 5.097605425609576635e+00 8.544644539089625568e-02
2.291100165062631144e-01 2.196564250206214410e+02 5.421920363090051431e+00 9.016297146989142586e-02
2.328724308685480304e-01 2.233554221665839918e+02 5.764456946812562599e+00 9.503849544129251703e-02
2.366348452308330019e-01 2.270601048598213083e+02 6.125874333568718910e+00 1.000714046419267089e-01
2.403972595931179179e-01 2.307706880935110689e+02 6.506831455606405079e+00 1.052598360401456323e-01
2.441596739554028339e-01 2.344873904366963018e+02 6.907986308615249094e+00 1.106016769871320665e-01
2.479220883176877777e-01 2.382104338491182602e+02 7.329995232136303329e+00 1.160945662126791761e-01
2.516845026799727214e-01 2.419400434963151270e+02 7.773512181948389888e+00 1.217358950687556368e-01
2.554469170422576374e-01 2.456764475648459722e+02 8.239187993990036318e+00 1.275228090226995792e-01
2.592093314045426089e-01 2.494198770775001606e+02 8.727669639381778310e+00 1.334522094004733095e-01
2.629717457668275249e-01 2.531705657083621190e+02 9.239599470118896818e+00 1.395207553790491772e-01
2.667341601291124409e-01 2.569287495976042806e+02 9.775614455009952408e+00 1.457248662257386029e-01
2.704965744913974124e-01 2.606946671658863579e+02 1.033634540544118430e+01 1.520607237809810941e-01
2.742589888536823284e-01 2.644685589282453861e+02 1.092241619055224966e+01 1.585242751800686745e-01
2.780214032159672444e-01 2.682506673073598336e+02 1.153444294141447912e+01 1.651112358081496534e-01
2.817838175782522159e-01 2.720412364460818821e+02 1.217303324380887730e+01 1.718170924819235890e-01
2.855462319405371319e-01 2.758405120191274023e+02 1.283878531920860944e+01 1.786371068505708537e-01
2.893086463028220479e-01 2.796487410438257371e+02 1.353228719357934651e+01 1.855663190077073976e-01
2.930710606651070194e-01 2.834661716898231703e+02 1.425411585362071953e+01 1.925995513055219488e-01
2.968334750273919354e-01 2.872930530876489570e+02 1.500483639008459846e+01 1.997314123617423554e-01
3.005958893896768513e-01 2.911296351360460335e+02 1.578500112782073117e+01 2.069563012498738253e-01
3.043583037519618228e-01 2.949761683079750583e+02 1.659514874221582303e+01 2.142684118617994571e-01
3.797795628590646677e-01 3.744677104496100242e+02 3.764567904106467466e+01 3.122788175447223091e-01
4.552008219661674571e-01 4.590148945755676664e+02 6.834962666334745052e+01 4.102892232276450502e-01
5.306220810732702464e-01 5.494881006936717540e+02 1.101018959441934584e+02 5.082996289105677912e-01
6.060433401803730913e-01 6.467227098585655085e+02 1.645355815595228250e+02 6.063100345934906432e-01
6.814645992874759362e-01 7.515631097569364556e+02 2.335367847744558389e+02 7.043204402764133842e-01
7.568858583945787810e-01 8.648890370315094742e+02 3.192679671299946449e+02 8.023308459593362363e-01
8.323071175016815149e-01 9.875746135415329263e+02 4.166566641598733440e+02 7.866912233349090400e-01
9.077283766087843597e-01 1.119296610098179599e+03 5.162649389885459641e+02 7.293268256294618279e-01
9.831496357158872046e-01 1.259238644942243809e+03 6.141054036132987903e+02 6.719624279240146159e-01
1.058570894822989938e+00 1.406507629414448729e+03 7.043381549459880944e+02 5.578465128332564804e-01
1.133992153930092783e+00 1.559671997752270272e+03 7.788094736190145113e+02 4.182175792412866078e-01
1.209413413037195628e+00 1.717068273437027528e+03 8.318386169929758580e+02 2.580132716621753031e-01
1.284834672144298473e+00 1.876784372685542621e+03 8.540777156705427160e+02 2.162015868661315565e-02
1.360255931251401318e+00 2.037696383130590903e+03 8.783420915566427993e+02 2.787103566144467637e-01
1.435677190358504163e+00 2.200639212614661119e+03 9.249779854433716082e+02 2.935986136568758398e-01
1.511098449465607008e+00 2.366114714079204532e+03 9.748025561310240619e+02 3.084868706993049159e-01
1.586519708572709852e+00 2.534157756059562416e+03 1.027902242594098880e+03 3.233751277417339920e-01
1.661940967679812697e+00 2.704804044371498094e+03 1.084365318354419969e+03 3.382633847841630681e-01
1.737362226786915542e+00 2.878090092197975537e+03 1.144281931014919564e+03 3.531516418265921442e-01
1.812783485894018387e+00 3.054053197104276478e+03 1.207744142063431127e+03 3.680398988690212203e-01
1.888204745001120788e+00 3.232731423550216277e+03 1.274845967028383484e+03 3.829281559114501854e-01
1.963626004108223633e+00 3.414163589814985698e+03 1.345683416054400823e+03 3.978164129538792615e-01
2.039047263215326478e+00 3.598389258502990288e+03 1.420354534955168219e+03 4.127046699963083376e-01
2.114468522322429322e+00 3.785448729985974751e+03 1.498959446792737026e+03 4.275929270387374137e-01
