# density  energy_density  pressure   sound_speed_squared  [All in nuclear units]
2.720000000000000022e-14 2.529924618736292620e-11 1.061056609100270887e-19 3.766610435412189122e-08
1.269999999999999890e-13 1.181251617980081254e-10 4.870113551826584858e-18 6.497781477172163475e-08
6.929999999999999754e-13 6.445728594625782745e-10 1.018299070687946017e-16 3.033770597342807186e-07
6.295000000000000137e-12 5.855111460395753757e-09 5.487150723824490656e-15 1.763710043904196507e-06
1.581000000000000150e-11 1.470523320212576141e-08 2.904239460150760759e-14 3.559434472327477622e-06
3.971999999999999958e-11 3.694456170323160790e-08 1.439340266754906811e-13 6.772854871245677111e-06
9.975999999999999982e-11 9.278976412613005154e-08 6.812143616221268841e-13 1.246890511177539320e-05
2.505999999999999928e-10 2.330928829758143313e-07 3.107749196951638608e-12 2.212095130576091967e-05
6.294000000000000186e-10 5.854398883216247602e-07 1.363250409771533549e-11 3.761981047239428883e-05
1.581000000000000021e-09 1.470619631082054101e-06 5.726014178088476303e-11 6.095350986710739404e-05
3.971999999999999932e-09 3.694861084648016046e-06 2.210019573374265380e-10 8.628023653304385055e-05
5.000000000000000105e-09 4.651201787816927976e-06 3.071485916280120014e-10 9.387863480799757518e-05
9.975999999999999465e-09 9.280587964640925786e-06 8.385361004129998845e-10 1.356922228656245837e-04
1.989999999999999952e-08 1.851419242998081003e-05 2.287763168863418088e-09 1.782101978513718314e-04
3.972999999999999908e-08 3.696699295748789187e-05 6.061583099087538954e-09 2.308134738384234820e-04
7.925999999999999637e-08 7.375765469301719828e-05 1.575347858094044765e-08 2.960532096713864875e-04
1.580999999999999930e-07 1.471491184379128891e-04 3.910429618672550719e-08 3.402859755131850544e-04
1.991000000000000027e-07 1.853209783927820692e-04 5.252045687899177454e-08 3.626488188833278743e-04
3.155999999999999938e-07 2.938002528823880299e-04 9.730770378831954314e-08 4.630767356912104081e-04
5.000999999999999849e-07 4.656344063839075714e-04 1.837494945860225819e-07 5.430301232045120323e-04
6.295999999999999732e-07 5.862651417037388971e-04 2.503103884558263872e-07 5.605192962670089638e-04
9.666999999999999941e-07 9.003386739730535665e-04 4.324450868778576936e-07 5.993081670211623108e-04
1.531999999999999901e-06 1.427170885631398036e-03 7.780217275717420968e-07 7.125938556504039095e-04
2.506999999999999883e-06 2.336134972129507662e-03 1.471005394641589826e-06 8.121876172121876309e-04
3.974000000000000407e-06 3.704315759716615697e-03 2.695705763844323844e-06 9.780674166779417152e-04
4.830000000000000343e-06 4.502887798316278223e-03 3.503988717694660908e-06 1.046253037768318664e-03
6.080999999999999885e-06 5.670217999231269741e-03 4.731126407333307547e-06 1.056224360839501646e-03
7.930000000000000308e-06 7.396012414119570652e-03 6.599662989063778187e-06 1.109203753630785610e-03
9.982000000000000313e-06 9.311815711689977113e-03 8.879881089227186733e-06 1.271216815433141075e-03
1.256999999999999993e-05 1.172874412604260098e-02 1.207676739913533738e-05 1.374195438212825332e-03
1.521999999999999997e-05 1.420427250933824909e-02 1.547541302213394990e-05 1.371610497379100249e-03
1.991000000000000080e-05 1.858690797761085312e-02 2.160710455847765458e-05 1.426578142835871997e-03
2.506999999999999883e-05 2.341050104039446925e-02 2.908031724375689851e-05 1.672007475975408053e-03
2.790999999999999875e-05 2.606604784714952258e-02 3.357009132255487721e-05 1.709425557744154774e-03
3.806999999999999973e-05 3.556967988784798945e-02 4.986781576435106434e-05 1.720407281314112165e-03
5.063000000000000145e-05 4.732434580343149871e-02 7.073400252905581275e-05 1.829889149838781265e-03
6.592000000000000583e-05 6.164112392498975052e-02 9.765037643900635188e-05 1.930242980462695823e-03
8.433000000000000066e-05 7.888776783401378612e-02 1.317235490470395893e-04 2.021055815200022837e-03
1.062000000000000064e-04 9.938561165478684845e-02 1.740088341640037047e-04 2.104789529260958983e-03
1.321000000000000126e-04 1.236720406455826121e-01 2.260189757651373944e-04 2.178291718403657477e-03
1.623999999999999901e-04 1.520974545104751274e-01 2.888169908545388338e-04 2.240170365918073281e-03
1.689999999999999879e-04 1.582907717069566844e-01 3.027354772999506964e-04 2.254509350360745651e-03
1.758999999999999930e-04 1.647661861691531171e-01 3.173785841705756782e-04 2.268169273277113179e-03
1.830000000000000029e-04 1.714298948183871907e-01 3.325196584577469103e-04 2.276170334580628063e-03
1.901999999999999882e-04 1.781880600978280049e-01 3.479577791899843742e-04 2.292561569242367037e-03
1.977000000000000079e-04 1.852284385240466902e-01 3.641242634600037713e-04 2.299943765467868384e-03
2.054000000000000053e-04 1.924572004474696396e-01 3.808304060475003897e-04 2.322187632288155723e-03
2.079000000000000119e-04 1.948043378760714872e-01 3.864137987380476553e-04 2.435429768083530178e-03
2.081999999999999921e-04 1.950859988578999005e-01 3.870314100985603909e-04 1.950065624557156818e-03
2.090999999999999868e-04 1.959309855029948977e-01 3.881261957135444685e-04 6.411875526909013856e-04
2.159999999999999919e-04 2.024093317906446865e-01 3.940874488768042125e-04 1.199166870571831411e-03
2.231000000000000019e-04 2.090756740932291913e-01 4.013938420547467825e-04 9.928616047829054436e-04
2.311000000000000066e-04 2.165873044433437034e-01 4.085241694843774404e-04 9.056166966301716637e-04
2.401000000000000085e-04 2.250381721984245909e-01 4.159700687886608468e-04 8.565463878902855599e-04
2.500000000000000052e-04 2.343344406330727658e-01 4.237602369176299592e-04 8.194318812157330018e-04
2.642999999999999733e-04 2.477629128650125634e-01 4.345596643180389446e-04 7.890063723638815647e-04
3.052999999999999941e-04 2.862671839140227270e-01 4.644058706720978241e-04 7.612775562167708662e-04
3.533000000000000224e-04 3.313503829113090826e-01 4.987577676308450197e-04 7.626578558207241024e-04
4.075999999999999871e-04 3.823564017794535141e-01 5.381334366106255759e-04 7.813048116943254948e-04
4.679999999999999915e-04 4.390986251953180042e-01 5.832692638200615834e-04 8.096035963157804938e-04
5.341000000000000261e-04 5.012024644415256081e-01 6.346556894078133086e-04 8.452514814113673558e-04
6.059000000000000366e-04 5.686690698184251325e-01 6.930641302632923034e-04 8.862253587289389486e-04
7.661000000000000275e-04 7.192254882508629654e-01 8.328184776562496576e-04 9.702780530519144065e-04
1.262000000000000101e-03 1.185459127778160093e+00 1.338484980802662205e-03 1.198863597978450275e-03
1.894999999999999983e-03 1.780909071169781921e+00 2.123481960401060308e-03 1.437771491635827115e-03
2.673000000000000029e-03 2.513147344746868850e+00 3.261860252001994032e-03 1.671524566936786766e-03
3.605999999999999830e-03 3.391736073717691369e+00 4.828136641022434151e-03 1.893900408978071038e-03
4.709999999999999777e-03 4.431905410739045870e+00 6.903512974832482635e-03 2.096551352830673849e-03
7.496000000000000059e-03 7.058993649504918366e+00 1.289742191321638018e-02 2.466596387205546859e-03
1.119999999999999989e-02 1.055540362104863661e+01 2.212077014004794340e-02 2.809304433764861584e-03
1.600000000000000033e-02 1.509117352747679952e+01 3.559566804390756900e-02 3.132325055719984222e-03
2.206999999999999934e-02 2.083310616724802244e+01 5.457322122755020599e-02 3.477840948757840792e-03
2.947999999999999926e-02 2.785007348564149154e+01 8.049103664263126956e-02 3.909302116317729670e-03
4.268000000000000266e-02 4.036707211535221518e+01 1.353887601042819133e-01 4.862066536253286525e-03
6.219999999999999835e-02 5.891246509830522626e+01 2.419691225623893105e-01 6.630786177272363080e-03
7.316999999999999893e-02 6.935151695866235855e+01 3.161896974764099033e-01 7.588671314871411888e-03
7.595999999999999974e-02 7.200836722020332559e+01 3.371250777904805096e-01 8.170805199905813859e-03
7.685877551020407761e-02 7.286441684168558197e+01 3.442132428817272771e-01 8.389359063382274134e-03
7.775755102040816935e-02 7.372055047748615664e+01 3.514945361063778195e-01 8.620342898396431489e-03
7.865632653061224722e-02 7.457676944950361531e+01 3.589794908011552654e-01 8.863385884017539393e-03
7.955510204081632508e-02 7.543307516801364443e+01 3.666783276360229826e-01 9.118117199314877339e-03
8.045387755102040295e-02 7.628946912514037137e+01 3.746009546123486578e-01 9.384166023357710940e-03
8.135265306122449469e-02 7.714595288862044242e+01 3.827569670599301754e-01 9.661161535215307544e-03
8.225142857142857256e-02 7.800252809584168290e+01 3.911556476315082298e-01 9.948732913956934501e-03
8.315020408163265042e-02 7.885919644814313756e+01 3.998059662935196101e-01 1.024650933865186089e-02
8.404897959183672829e-02 7.971595970536093034e+01 4.087165803119570118e-01 1.055411998836935233e-02
8.494775510204082003e-02 8.057281968060718214e+01 4.178958342323157993e-01 1.087119404217868485e-02
8.584653061224489790e-02 8.142977823527003522e+01 4.273517598527048489e-01 1.119736067914911190e-02
8.674530612244897576e-02 8.228683727422260574e+01 4.370920761892974071e-01 1.153224907834991472e-02
8.764408163265305363e-02 8.314399874123004963e+01 4.471241894333815026e-01 1.187548841885035546e-02
8.854285714285714537e-02 8.400126461454441085e+01 4.574551928993554339e-01 1.222670787971971013e-02
8.944163265306122323e-02 8.485863690267818527e+01 4.680918669630879658e-01 1.258553664002723220e-02
9.034040816326530110e-02 8.571611764034688008e+01 4.790406789901385243e-01 1.295160387884219770e-02
9.123918367346939284e-02 8.657370888457208480e+01 4.903077832533941360e-01 1.332453877523387745e-02
9.213795918367347071e-02 8.743141271093742262e+01 5.018990208397473562e-01 1.370397050827153358e-02
9.303673469387754857e-02 8.828923120998982199e+01 5.138199195454992152e-01 1.408952825702443692e-02
9.393551020408162644e-02 8.914716648377876140e+01 5.260756937602202310e-01 1.448084120056185829e-02
9.483428571428570431e-02 9.000522064252592713e+01 5.386712443388621541e-01 1.487753851795305636e-02
9.573306122448979605e-02 9.086339580142151817e+01 5.516111584619568520e-01 1.527924938826731929e-02
9.663183673469387391e-02 9.172169407753789017e+01 5.648997094837850952e-01 1.568560299057388668e-02
9.753061224489795178e-02 9.258011758685735515e+01 5.785408567684455772e-01 1.609622850394204843e-02
9.842938775510204352e-02 9.343866844140822536e+01 5.925382455137874205e-01 1.651075510744106842e-02
9.932816326530612139e-02 9.429734874650304732e+01 6.068952065632131632e-01 1.692881198014020705e-02
1.002269387755101993e-01 9.515616059807541660e+01 6.216147562053973008e-01 1.735002830110873862e-02
1.011257142857142910e-01 9.601510608011099634e+01 6.366995959619906609e-01 1.777403324941594087e-02
1.020244897959183689e-01 9.687418726216657205e+01 6.521521123634216321e-01 1.820045600413105341e-02
1.029232653061224467e-01 9.773340619697627574e+01 6.679743767129338039e-01 1.862892574432336440e-02
1.038220408163265246e-01 9.859276491813773191e+01 6.841681448390235509e-01 1.905907164906214118e-02
1.047208163265306025e-01 9.945226543787701701e+01 7.007348568364739627e-01 1.949052289741664765e-02
1.056195918367346942e-01 1.003119097448881121e+02 7.176756367962051630e-01 1.992290866845616154e-02
1.065183673469387721e-01 1.011716998022428271e+02 7.349912925241832706e-01 2.035585814124993981e-02
1.074171428571428499e-01 1.020316375453697475e+02 7.526823152496593394e-01 2.078900049486724980e-02
1.083159183673469417e-01 1.028917248800975699e+02 7.707488793230232726e-01 2.122196490837736926e-02
1.092146938775510195e-01 1.037519636807615626e+02 7.891908419035853495e-01 2.165438056084955515e-02
1.101134693877550974e-01 1.046123557883690438e+02 8.080077426376176541e-01 2.208587663135307827e-02
1.110122448979591891e-01 1.054729030088228114e+02 8.271988033270000207e-01 2.251608229895721985e-02
1.119110204081632531e-01 1.063336071111982903e+02 8.467629275888398643e-01 2.294462674273123337e-02
1.128097959183673449e-01 1.071944698260749078e+02 8.666987005064545890e-01 2.337113914174438617e-02
1.137085714285714227e-01 1.080554928439161557e+02 8.870043882721062589e-01 2.379524867506595254e-02
1.146073469387755006e-01 1.089166778134990068e+02 9.076779378219184125e-01 2.421658452176519635e-02
1.155061224489795924e-01 1.097780263403894736e+02 9.287169764633964597e-01 2.463477586091139537e-02
1.164048979591836702e-01 1.106395399854625623e+02 9.501188114959997488e-01 2.504945187157380654e-02
1.173036734693877481e-01 1.115012202634651572e+02 9.718804298252287088e-01 2.546024173282170067e-02
1.182024489795918398e-01 1.123630686416200462e+02 9.939984975706933623e-01 2.586677462372435551e-02
1.191012244897959177e-01 1.132250865382689682e+02 1.016469359668650929e+00 2.626867972335102108e-02
1.199999999999999956e-01 1.140872753215539035e+02 1.039289039469512010e+00 2.666558621077097513e-02
1.226705138716859961e-01 1.166501051569103709e+02 1.109111797955445233e+00 2.782291513168028835e-02
1.253410277433719966e-01 1.192144876134654652e+02 1.181941091521042431e+00 2.897743280201437246e-02
1.280115416150580110e-01 1.217804536208413424e+02 1.257771908413085393e+00 3.012734601254525232e-02
1.306820554867439976e-01 1.243480326666518891e+02 1.336594722406080571e+00 3.127089639355061512e-02
1.333525693584300120e-01 1.269172527933631187e+02 1.418395563351729560e+00 3.240636047898005218e-02
1.360230832301160264e-01 1.294881405968173453e+02 1.503156087683456876e+00 3.353204967830564903e-02
1.386935971018020131e-01 1.320607212262567884e+02 1.590853648711265222e+00 3.464631015773934897e-02
1.413641109734880275e-01 1.346350183856940248e+02 1.681461366542474023e+00 3.574752263234295957e-02
1.440346248451740419e-01 1.372110543364955504e+02 1.774948197463746435e+00 3.683410207040884593e-02
1.467051387168600285e-01 1.397888499010542773e+02 1.871279002619280707e+00 3.790449731135387551e-02
1.493756525885460429e-01 1.423684244674362560e+02 1.970414615819089610e+00 3.895719059823953695e-02
1.520461664602320295e-01 1.449497959948982100e+02 2.072311910310038474e+00 3.999069702590921788e-02
1.547166803319180439e-01 1.475329810201808698e+02 2.176923864340784665e+00 4.100356390561252923e-02
1.573871942036040306e-01 1.501179946644859911e+02 2.284199625349892848e+00 4.199437004688461733e-02
1.600577080752900450e-01 1.527048506410583286e+02 2.394084572604266103e+00 4.296172495722801188e-02
1.627282219469760594e-01 1.552935612632900302e+02 2.506520378112794489e+00 4.390426796033977674e-02
1.653987358186620460e-01 1.578841374532786404e+02 2.621445065637513228e+00 4.482066723298606253e-02
1.680692496903480604e-01 1.604765887507685989e+02 2.738793067621611677e+00 4.570961876103220300e-02
1.707397635620340748e-01 1.630709233224105219e+02 2.858495279850794990e+00 4.656984521469721000e-02
1.734102774337200614e-01 1.656671479712775010e+02 2.980479113661178570e+00 4.740009474308314041e-02
1.760807913054060758e-01 1.682652681465791602e+02 3.104668545503435517e+00 4.819913968788552827e-02
1.787513051770920902e-01 1.708652879535157751e+02 3.230984163669232689e+00 4.896577521605981198e-02
1.814218190487780769e-01 1.734672101632208410e+02 3.359343211982142918e+00 4.969881787108172688e-02
1.840923329204640635e-01 1.760710362227360690e+02 3.489659630251074063e+00 5.039710404230004354e-02
1.867628467921500779e-01 1.786767662649703254e+02 3.621844091279932343e+00 5.105948835173505784e-02
1.894333606638360923e-01 1.812843991185926029e+02 3.755804034222694820e+00 5.168484195752659494e-02
1.921038745355220789e-01 1.838939323178088614e+02 3.891443694068280834e+00 5.227205077308302861e-02
1.947743884072080933e-01 1.865053621119783713e+02 4.028664127034583764e+00 5.282001360082255736e-02
1.974449022788941077e-01 1.891186834750206742e+02 4.167363231645755839e+00 5.332764017923719707e-02
2.001154161505800944e-01 1.917338901145673731e+02 4.307435765261384830e+00 5.379384914184102973e-02
2.027859300222661088e-01 1.943509744808158075e+02 4.448773355820403452e+00 5.421756588639408542e-02
2.054564438939521231e-01 1.969699277750367514e+02 4.591264508556591295e+00 5.459772035261629963e-02
2.081269577656381098e-01 1.995907399576932164e+02 4.734794607436298541e+00 5.493324470642729079e-02
2.107974716373240964e-01 2.022133997561253125e+02 4.879245911062485952e+00 5.522307092856380828e-02
2.134679855090101386e-01 2.048378946717580504e+02 5.024497542782413895e+00 5.546612830523989235e-02
2.161384993806961252e-01 2.074642109867853605e+02 5.170425474729301918e+00 5.566134081832559838e-02
2.188090132523821119e-01 2.100923337702890592e+02 5.316902505521038158e+00 5.580762443232754888e-02
2.214795271240681263e-01 2.127222468837454414e+02 5.463798231331406186e+00 5.590388427526077342e-02
2.241500409957541406e-01 2.153539329858758435e+02 5.610979010041639015e+00 5.594901171030588344e-02
2.268205548674401273e-01 2.179873735367962411e+02 5.758307918172049789e+00 5.594188129494981343e-02
2.294910687391261417e-01 2.206225488014194127e+02 5.905644700285309412e+00 5.588134762411287038e-02
2.321615826108121561e-01 2.232594378520656164e+02 6.052845710544492164e+00 5.576624205357130770e-02
2.348320964824981427e-01 2.258980185702316419e+02 6.199763846100472264e+00 5.559536929979273095e-02
2.375026103541841571e-01 2.285382676474756352e+02 6.346248471974475613e+00 5.536750391211496536e-02
2.401731242258701715e-01 2.311801605853650017e+02 6.492145337092723345e+00 5.508138661301727884e-02
2.428436380975561582e-01 2.338236716944448403e+02 6.637296481121201630e+00 5.473572050205897238e-02
2.455141519692421725e-01 2.364687740921716852e+02 6.781540131739587807e+00 5.432916711889634875e-02
2.481846658409281592e-01 2.391154396997658296e+02 6.924710591984407415e+00 5.386034236063690084e-02
2.508551797126141736e-01 2.417636392379334609e+02 7.066638117282678877e+00 5.332781224865295461e-02
3.273683393103159478e-01 3.204018619745307888e+02 3.586881590192412261e+01 6.431863208517283326e-01
4.038814989080176665e-01 4.098127838203243982e+02 9.322489553592913580e+01 6.417270138981345795e-01
4.803946585057193852e-01 5.094031349344238038e+02 1.313232300459056319e+02 1.473944800000883681e-01
5.569078181034211594e-01 6.122225483167717357e+02 1.409538397927594815e+02 4.077855273643002376e-02
6.334209777011229336e-01 7.159636768900303423e+02 1.449408876012418830e+02 3.610286021462259798e-02
7.099341372988245968e-01 8.212006914019948454e+02 1.728434395399430343e+02 4.858507539781292683e-01
7.864472968965263711e-01 9.313551548162232621e+02 2.381844837593515933e+02 6.910579284742655037e-01
8.629604564942281453e-01 1.048991296759826810e+03 3.233536140153557881e+02 7.536911077553665184e-01
9.394736160919299195e-01 1.174755186793515804e+03 4.222958728891463807e+02 8.163242870364674220e-01
1.015986775689631694e+00 1.309162332343324806e+03 5.364691814127136240e+02 8.789574663175683256e-01
1.092499935287333468e+00 1.452764977131414071e+03 6.674620473841250714e+02 9.415906455986693402e-01
1.169013094885035020e+00 1.606149537268159065e+03 8.128871404733633881e+02 9.539242206519381595e-01
1.245526254482737016e+00 1.769405029719277081e+03 9.636470556079862035e+02 8.963261999544706038e-01
1.322039414080438569e+00 1.941892667024952971e+03 1.113035617341664874e+03 8.387281792570032701e-01
1.398552573678140343e+00 2.122950470689520898e+03 1.259454014429938070e+03 7.811301585595358254e-01
1.475065733275842117e+00 2.311904310464979062e+03 1.401408000379331725e+03 7.235321378620683808e-01
1.551578892873543891e+00 2.508075466231630344e+03 1.537516095137001912e+03 6.659341171646009361e-01
1.628092052471245665e+00 2.710919104871091804e+03 1.684218850777935359e+03 7.772915199742718162e-01
1.704605212068947440e+00 2.921216229652839502e+03 1.844163318349723340e+03 7.449184877496046742e-01
1.781118371666649214e+00 3.138641139836090588e+03 1.999478121563461400e+03 6.854379251251192517e-01
1.857631531264350766e+00 3.362554263151318992e+03 2.146137383471131216e+03 6.259573625006339403e-01
1.934144690862052540e+00 3.592306711108123636e+03 2.282981398255020395e+03 5.664767998761485179e-01
2.010657850459754314e+00 3.827257517079056925e+03 2.408970276726858174e+03 5.069962372516629845e-01
2.087171010057455867e+00 4.066777296410856707e+03 2.523183870583323824e+03 4.475156746271777841e-01
