# density  energy_density  pressure   sound_speed_squared  [All in nuclear units]
2.720000000000000022e-14 2.529924618736292620e-11 1.061056609100270887e-19 3.766610435412189122e-08
1.269999999999999890e-13 1.181251617980081254e-10 4.870113551826584858e-18 6.497781477172163475e-08
6.929999999999999754e-13 6.445728594625782745e-10 1.018299070687946017e-16 3.033770597342807186e-07
6.295000000000000137e-12 5.855111460395753757e-09 5.487150723824490656e-15 1.763710043904196507e-06
1.581000000000000150e-11 1.470523320212576141e-08 2.904239460150760759e-14 3.559434472327477622e-06
3.971999999999999958e-11 3.694456170323160790e-08 1.439340266754906811e-13 6.772854871245677111e-06
9.975999999999999982e-11 9.278976412613005154e-08 6.812143616221268841e-13 1.246890511177539320e-05
2.505999999999999928e-10 2.330928829758143313e-07 3.107749196951638608e-12 2.212095130576091967e-05
6.294000000000000186e-10 5.854398883216247602e-07 1.363250409771533549e-11 3.761981047239428883e-05
1.581000000000000021e-09 1.470619631082054101e-06 5.726014178088476303e-11 6.095350986710739404e-05
3.971999999999999932e-09 3.694861084648016046e-06 2.210019573374265380e-10 8.628023653304385055e-05
5.000000000000000105e-09 4.651201787816927976e-06 3.071485916280120014e-10 9.387863480799757518e-05
9.975999999999999465e-09 9.280587964640925786e-06 8.385361004129998845e-10 1.356922228656245837e-04
1.989999999999999952e-08 1.851419242998081003e-05 2.287763168863418088e-09 1.782101978513718314e-04
3.972999999999999908e-08 3.696699295748789187e-05 6.061583099087538954e-09 2.308134738384234820e-04
7.925999999999999637e-08 7.375765469301719828e-05 1.575347858094044765e-08 2.960532096713864875e-04
1.580999999999999930e-07 1.471491184379128891e-04 3.910429618672550719e-08 3.402859755131850544e-04
1.991000000000000027e-07 1.853209783927820692e-04 5.252045687899177454e-08 3.626488188833278743e-04
3.155999999999999938e-07 2.938002528823880299e-04 9.730770378831954314e-08 4.630767356912104081e-04
5.000999999999999849e-07 4.656344063839075714e-04 1.837494945860225819e-07 5.430301232045120323e-04
6.295999999999999732e-07 5.862651417037388971e-04 2.503103884558263872e-07 5.605192962670089638e-04
9.666999999999999941e-07 9.003386739730535665e-04 4.324450868778576936e-07 5.993081670211623108e-04
1.531999999999999901e-06 1.427170885631398036e-03 7.780217275717420968e-07 7.125938556504039095e-04
2.506999999999999883e-06 2.336134972129507662e-03 1.471005394641589826e-06 8.121876172121876309e-04
3.974000000000000407e-06 3.704315759716615697e-03 2.695705763844323844e-06 9.780674166779417152e-04
4.830000000000000343e-06 4.502887798316278223e-03 3.503988717694660908e-06 1.046253037768318664e-03
6.080999999999999885e-06 5.670217999231269741e-03 4.731126407333307547e-06 1.056224360839501646e-03
7.930000000000000308e-06 7.396012414119570652e-03 6.599662989063778187e-06 1.109203753630785610e-03
9.982000000000000313e-06 9.311815711689977113e-03 8.879881089227186733e-06 1.271216815433141075e-03
1.256999999999999993e-05 1.172874412604260098e-02 1.207676739913533738e-05 1.374195438212825332e-03
1.521999999999999997e-05 1.420427250933824909e-02 1.547541302213394990e-05 1.371610497379100249e-03
1.991000000000000080e-05 1.858690797761085312e-02 2.160710455847765458e-05 1.426578142835871997e-03
2.506999999999999883e-05 2.341050104039446925e-02 2.908031724375689851e-05 1.672007475975408053e-03
2.790999999999999875e-05 2.606604784714952258e-02 3.357009132255487721e-05 1.709425557744154774e-03
3.806999999999999973e-05 3.556967988784798945e-02 4.986781576435106434e-05 1.720407281314112165e-03
5.063000000000000145e-05 4.732434580343149871e-02 7.073400252905581275e-05 1.829889149838781265e-03
6.592000000000000583e-05 6.164112392498975052e-02 9.765037643900635188e-05 1.930242980462695823e-03
8.433000000000000066e-05 7.888776783401378612e-02 1.317235490470395893e-04 2.021055815200022837e-03
1.062000000000000064e-04 9.938561165478684845e-02 1.740088341640037047e-04 2.104789529260958983e-03
1.321000000000000126e-04 1.236720406455826121e-01 2.260189757651373944e-04 2.178291718403657477e-03
1.623999999999999901e-04 1.520974545104751274e-01 2.888169908545388338e-04 2.240170365918073281e-03
1.689999999999999879e-04 1.582907717069566844e-01 3.027354772999506964e-04 2.254509350360745651e-03
1.758999999999999930e-04 1.647661861691531171e-01 3.173785841705756782e-04 2.268169273277113179e-03
1.830000000000000029e-04 1.714298948183871907e-01 3.325196584577469103e-04 2.276170334580628063e-03
1.901999999999999882e-04 1.781880600978280049e-01 3.479577791899843742e-04 2.292561569242367037e-03
1.977000000000000079e-04 1.852284385240466902e-01 3.641242634600037713e-04 2.299943765467868384e-03
2.054000000000000053e-04 1.924572004474696396e-01 3.808304060475003897e-04 2.322187632288155723e-03
2.079000000000000119e-04 1.948043378760714872e-01 3.864137987380476553e-04 2.435429768083530178e-03
2.081999999999999921e-04 1.950859988578999005e-01 3.870314100985603909e-04 1.950065624557156818e-03
2.090999999999999868e-04 1.959309855029948977e-01 3.881261957135444685e-04 6.411875526909013856e-04
2.159999999999999919e-04 2.024093317906446865e-01 3.940874488768042125e-04 1.199166870571831411e-03
2.231000000000000019e-04 2.090756740932291913e-01 4.013938420547467825e-04 9.928616047829054436e-04
2.311000000000000066e-04 2.165873044433437034e-01 4.085241694843774404e-04 9.056166966301716637e-04
2.401000000000000085e-04 2.250381721984245909e-01 4.159700687886608468e-04 8.565463878902855599e-04
2.500000000000000052e-04 2.343344406330727658e-01 4.237602369176299592e-04 8.194318812157330018e-04
2.642999999999999733e-04 2.477629128650125634e-01 4.345596643180389446e-04 7.890063723638815647e-04
3.052999999999999941e-04 2.862671839140227270e-01 4.644058706720978241e-04 7.612775562167708662e-04
3.533000000000000224e-04 3.313503829113090826e-01 4.987577676308450197e-04 7.626578558207241024e-04
4.075999999999999871e-04 3.823564017794535141e-01 5.381334366106255759e-04 7.813048116943254948e-04
4.679999999999999915e-04 4.390986251953180042e-01 5.832692638200615834e-04 8.096035963157804938e-04
5.341000000000000261e-04 5.012024644415256081e-01 6.346556894078133086e-04 8.452514814113673558e-04
6.059000000000000366e-04 5.686690698184251325e-01 6.930641302632923034e-04 8.862253587289389486e-04
7.661000000000000275e-04 7.192254882508629654e-01 8.328184776562496576e-04 9.702780530519144065e-04
1.262000000000000101e-03 1.185459127778160093e+00 1.338484980802662205e-03 1.198863597978450275e-03
1.894999999999999983e-03 1.780909071169781921e+00 2.123481960401060308e-03 1.437771491635827115e-03
2.673000000000000029e-03 2.513147344746868850e+00 3.261860252001994032e-03 1.671524566936786766e-03
3.605999999999999830e-03 3.391736073717691369e+00 4.828136641022434151e-03 1.893900408978071038e-03
4.709999999999999777e-03 4.431905410739045870e+00 6.903512974832482635e-03 2.096551352830673849e-03
7.496000000000000059e-03 7.058993649504918366e+00 1.289742191321638018e-02 2.466596387205546859e-03
1.119999999999999989e-02 1.055540362104863661e+01 2.212077014004794340e-02 2.809304433764861584e-03
1.600000000000000033e-02 1.509117352747679952e+01 3.559566804390756900e-02 3.132325055719984222e-03
2.206999999999999934e-02 2.083310616724802244e+01 5.457322122755020599e-02 3.477840948757840792e-03
2.947999999999999926e-02 2.785007348564149154e+01 8.049103664263126956e-02 3.909302116317729670e-03
4.268000000000000266e-02 4.036707211535221518e+01 1.353887601042819133e-01 4.862066536253286525e-03
6.219999999999999835e-02 5.891246509830522626e+01 2.419691225623893105e-01 6.630786177272363080e-03
7.316999999999999893e-02 6.935151695866235855e+01 3.161896974764099033e-01 7.588671314871411888e-03
7.595999999999999974e-02 7.200836722020332559e+01 3.371250777904805096e-01 8.170805199905812125e-03
7.685877551020407761e-02 7.286441681955102467e+01 3.442094548675426191e-01 8.380509942301139423e-03
7.775755102040816935e-02 7.372055033044192385e+01 3.514768965451794402e-01 8.596836865825956131e-03
7.865632653061224722e-02 7.457676893149566411e+01 3.589330472143765771e-01 8.819618606067532521e-03
7.955510204081632508e-02 7.543307383809575128e+01 3.665834107249039686e-01 9.048687798613149272e-03
8.045387755102040295e-02 7.628946629955505898e+01 3.744333503811497765e-01 9.283877079050076656e-03
8.135265306122449469e-02 7.714594759640888810e+01 3.824880889360186553e-01 9.525019082965593617e-03
8.225142857142857256e-02 7.800251903782660179e+01 3.907527085826387192e-01 9.771946445946972162e-03
8.315020408163265042e-02 7.885918195913720297e+01 3.992321509436479454e-01 1.002449180358148603e-02
8.404897959183672829e-02 7.971593771946122331e+01 4.079312170578486274e-01 1.028248779145641244e-02
8.494775510204082003e-02 8.057278769944390717e+01 4.168545673640445259e-01 1.054576704515903032e-02
8.584653061224489790e-02 8.142973329908420510e+01 4.260067216818901326e-01 1.081416220027660649e-02
8.674530612244897576e-02 8.228677593565424786e+01 4.353920591896041081e-01 1.108750589239641815e-02
8.764408163265305363e-02 8.314391704170530772e+01 4.450148183984103945e-01 1.136563075710574425e-02
8.854285714285714537e-02 8.400115806315471900e+01 4.548790971235913139e-01 1.164836942999185852e-02
8.944163265306122323e-02 8.485850045745031878e+01 4.649888524520475741e-01 1.193555454664203125e-02
9.034040816326530110e-02 8.571594569180888357e+01 4.753479007062785811e-01 1.222701874264354137e-02
9.123918367346939284e-02 8.657349524152326126e+01 4.859599174047029013e-01 1.252259465358366089e-02
9.213795918367347071e-02 8.743115058833660669e+01 4.968284372182560360e-01 1.282211491504966876e-02
9.303673469387754857e-02 8.828891321887969923e+01 5.079568539232136581e-01 1.312541216262883351e-02
9.393551020408162644e-02 8.914678462316723540e+01 5.193484203501941288e-01 1.343231903190843929e-02
9.483428571428570431e-02 9.000476629315242860e+01 5.310062483293108704e-01 1.374266815847575290e-02
9.573306122448979605e-02 9.086285972133465805e+01 5.429333086314489520e-01 1.405629217791805677e-02
9.663183673469387391e-02 9.172106639941992512e+01 5.551324309056516748e-01 1.437302372582261595e-02
9.753061224489795178e-02 9.257938781702959830e+01 5.676063036126125505e-01 1.469269543777671112e-02
9.842938775510204352e-02 9.343782546045689230e+01 5.803574739542710637e-01 1.501513994936761950e-02
9.932816326530612139e-02 9.429638081146765671e+01 5.933883477995219868e-01 1.534018989618261136e-02
1.002269387755101993e-01 9.515505534614403871e+01 6.067011896060565679e-01 1.566767791380896044e-02
1.011257142857142910e-01 9.601385053376866097e+01 6.202981223383530196e-01 1.599743663783395262e-02
1.020244897959183689e-01 9.687276783574839101e+01 6.341811273818472872e-01 1.632929870384484949e-02
1.029232653061224467e-01 9.773180870457447611e+01 6.483520444533195093e-01 1.666309674742892655e-02
1.038220408163265246e-01 9.859097458281834747e+01 6.628125715075318114e-01 1.699866340417346619e-02
1.047208163265306025e-01 9.945026690216221255e+01 6.775642646401661695e-01 1.733583130966574043e-02
1.056195918367346942e-01 1.003096870824608828e+02 6.926085379871097514e-01 1.767443309949303168e-02
1.065183673469387721e-01 1.011692365308352919e+02 7.079466636201419139e-01 1.801430140924259807e-02
1.074171428571428499e-01 1.020289166407960266e+02 7.235797714390851398e-01 1.835526887450172548e-02
1.083159183673469417e-01 1.028887287913942998e+02 7.395088490604777576e-01 1.869716813085768592e-02
1.092146938775510195e-01 1.037486743464012022e+02 7.557347417028388303e-01 1.903983181389775833e-02
1.101134693877550974e-01 1.046087546535123636e+02 7.722581520685967149e-01 1.938309255920921126e-02
1.110122448979591891e-01 1.054689710435780654e+02 7.890796402227530093e-01 1.972678300237932711e-02
1.119110204081632531e-01 1.063293248298564606e+02 8.061996234683606044e-01 2.007073577899536748e-02
1.128097959183673449e-01 1.071898173072909799e+02 8.236183762189012159e-01 2.041478352464462867e-02
1.137085714285714227e-01 1.080504497518089835e+02 8.413360298676368920e-01 2.075875887491436880e-02
1.146073469387755006e-01 1.089112234196411180e+02 8.593525726540355292e-01 2.110249446539186335e-02
1.155061224489795924e-01 1.097721395466624017e+02 8.776678495273503300e-01 2.144582293166439474e-02
1.164048979591836702e-01 1.106331993477509457e+02 8.962815620074491285e-01 2.178857690931922803e-02
1.173036734693877481e-01 1.114944040161670671e+02 9.151932680429929468e-01 2.213058903394365604e-02
1.182024489795918398e-01 1.123557547229491007e+02 9.344023818670559312e-01 2.247169194112493343e-02
1.191012244897959177e-01 1.132172526163270589e+02 9.539081738502886987e-01 2.281171826645034262e-02
1.199999999999999956e-01 1.140788988211531603e+02 9.737097703517323399e-01 2.315050064550716255e-02
1.210781407004985488e-01 1.151126977650285710e+02 9.978526294200353863e-01 2.355653177388114528e-02
1.221562814009971021e-01 1.161467135887301936e+02 1.022422935124841947e+00 2.396747328245310907e-02
1.232344221014956553e-01 1.171809481740200169e+02 1.047425978896271648e+00 2.438330636025348372e-02
1.243125628019942086e-01 1.182154034159653122e+02 1.072867037850851579e+00 2.480401078156608402e-02
1.253907035024927619e-01 1.192500812224622564e+02 1.098751373372035989e+00 2.522956489775285069e-02
1.264688442029913151e-01 1.202849835137631231e+02 1.125084229679895742e+00 2.565994562880856769e-02
1.275469849034898684e-01 1.213201122220083903e+02 1.151870832389610966e+00 2.609512845464943831e-02
1.286251256039884217e-01 1.223554692907616754e+02 1.179116387058406268e+00 2.653508740614060266e-02
1.297032663044869749e-01 1.233910566745479827e+02 1.206826077720567048e+00 2.697979505586474425e-02
1.307814070049855282e-01 1.244268763383957577e+02 1.235005065410181624e+00 2.742922250863709735e-02
1.318595477054840814e-01 1.254629302573809184e+02 1.263658486671251913e+00 2.788333939176708756e-02
1.329376884059826347e-01 1.264992204161744098e+02 1.292791452054822043e+00 2.834211384507279510e-02
1.340158291064811880e-01 1.275357488085915065e+02 1.322409044602772310e+00 2.880551251064740817e-02
1.350939698069797412e-01 1.285725174371439437e+02 1.352516318317927180e+00 2.927350052238134395e-02
1.361721105074782945e-01 1.296095283125933690e+02 1.383118296620130527e+00 2.974604149524280941e-02
1.372502512079768477e-01 1.306467834535076236e+02 1.414219970787937930e+00 3.022309751431601424e-02
1.383283919084754010e-01 1.316842848858179025e+02 1.445826298385579634e+00 3.070462912360062691e-02
1.394065326089739543e-01 1.327220346423775368e+02 1.477942201674845135e+00 3.119059531457367765e-02
1.404846733094725075e-01 1.337600347625221104e+02 1.510572566011542550e+00 3.168095351450724018e-02
1.415628140099710608e-01 1.347982872916311408e+02 1.543722238226186594e+00 3.217565957456456488e-02
1.426409547104696141e-01 1.358367942806899862e+02 1.577396024988567458e+00 3.267466775764266834e-02
1.437190954109681673e-01 1.368755577858532320e+02 1.611598691155849972e+00 3.317793072598885368e-02
1.447972361114667206e-01 1.379145798680081896e+02 1.646334958103855328e+00 3.368539952857866476e-02
1.458753768119652738e-01 1.389538625923394761e+02 1.681609502041176984e+00 3.419702358825807420e-02
1.469535175124637993e-01 1.399934080278933379e+02 1.717426952305777021e+00 3.471275068864960317e-02
1.480316582129623526e-01 1.410332182471422868e+02 1.753791889643717239e+00 3.523252696082149887e-02
1.491097989134609059e-01 1.420732953255509017e+02 1.790708844469658834e+00 3.575629686971980303e-02
1.501879396139594591e-01 1.431136413411395836e+02 1.828182295108792932e+00 3.628400320036229143e-02
1.512660803144580124e-01 1.441542583740500447e+02 1.866216666019831383e+00 3.681558704379352120e-02
1.523442210149565657e-01 1.451951485061089500e+02 1.904816325998707427e+00 3.735098778279983406e-02
1.534223617154551189e-01 1.462363138203924393e+02 1.943985586362622087e+00 3.789014307738290677e-02
1.545005024159536722e-01 1.472777564007888884e+02 1.983728699114077010e+00 3.843298884999088449e-02
1.555786431164522254e-01 1.483194783315620953e+02 2.024049855084526950e+00 3.897945927050523035e-02
1.566567838169507787e-01 1.493614816969126196e+02 2.064953182057287062e+00 3.952948674098172993e-02
1.577349245174493320e-01 1.504037685805386388e+02 2.106442742869325979e+00 4.008300188014394388e-02
1.588130652179478852e-01 1.514463410651961794e+02 2.148522533491571629e+00 4.063993350762713785e-02
1.598912059184464385e-01 1.524892012322575283e+02 2.191196481087357650e+00 4.120020862797064976e-02
1.609693466189449917e-01 1.535323511612686502e+02 2.234468442048632042e+00 4.176375241435646007e-02
1.620474873194435450e-01 1.545757929295053827e+02 2.278342200009551899e+00 4.233048819209192515e-02
1.631256280199420983e-01 1.556195286115278975e+02 2.322821463837076550e+00 4.290033742183392562e-02
1.642037687204406515e-01 1.566635602787334847e+02 2.367909865598178953e+00 4.347321968255216107e-02
1.652819094209392048e-01 1.577078899989083993e+02 2.413610958503283666e+00 4.404905265422900951e-02
1.663600501214377581e-01 1.587525198357768090e+02 2.459928214825543247e+00 4.462775210029308603e-02
1.674381908219363113e-01 1.597974518485487465e+02 2.506865023795555203e+00 4.520923184978369730e-02
1.685163315224348646e-01 1.608426880914655897e+02 2.554424689471124665e+00 4.579340377924327049e-02
1.695944722229334178e-01 1.618882306133441489e+02 2.602610428581670465e+00 4.638017779433495358e-02
1.706726129234319711e-01 1.629340814571168323e+02 2.651425368346869593e+00 4.696946181118200059e-02
1.717507536239305244e-01 1.639802426593723794e+02 2.700872544269136366e+00 4.756116173742571535e-02
1.728288943244290776e-01 1.650267162498911375e+02 2.750954897899520191e+00 4.815518145299908792e-02
2.509344270933182575e-01 2.425072829750002370e+02 1.181121353404656027e+01 1.827876177370948985e-01
3.290399598622074651e-01 3.243721503298574476e+02 3.249014231562184563e+01 3.174200540211907784e-01
4.071454926310966727e-01 4.125647665115557174e+02 6.671614677693108320e+01 4.520524903052866583e-01
4.852510253999858802e-01 5.086939553058292631e+02 1.170427073433937721e+02 5.866849265893826493e-01
5.633565581688750878e-01 6.125249074932615940e+02 1.485473330637652225e+02 3.714589054233969484e-02
6.414620909377642954e-01 7.187729684411428934e+02 1.604934336514117774e+02 1.865540373702554433e-01
7.195676237066535030e-01 8.273724781792896010e+02 1.890120344517446824e+02 3.359621841981711432e-01
7.976731564755427106e-01 9.398745938310775045e+02 2.332451532195817663e+02 4.474848031664550585e-01
8.757786892444319182e-01 1.057246665192563569e+03 2.865935095126683336e+02 4.613716847602197246e-01
9.538842220133211258e-01 1.179552085579241066e+03 3.438831945554175036e+02 4.752585663539843353e-01
1.031989754782210333e+00 1.306713342991230547e+03 4.052137267442827806e+02 4.891454479477489459e-01
1.110095287551099652e+00 1.438672491281691464e+03 4.706911399334365456e+02 5.030323295415136675e-01
1.188200820319988971e+00 1.575387436325745966e+03 5.404271640112960995e+02 5.169192111352782781e-01
1.266306353088878067e+00 1.716829156440981478e+03 6.145386415054327927e+02 5.308060927290428888e-01
1.344411885857767164e+00 1.862979579988677415e+03 6.931471072748264532e+02 5.446929743228074994e-01
1.422517418626656482e+00 2.013829936622571950e+03 7.763784837865877080e+02 5.585798559165722210e-01
1.500622951395545801e+00 2.169379457187785192e+03 8.643628601533619076e+02 5.724667375103368316e-01
1.578728484164434898e+00 2.329634335055015072e+03 9.572343330822479857e+02 5.863536191041014423e-01
1.656834016933323994e+00 2.494606886729437520e+03 1.055130894408867789e+03 6.002405006978660529e-01
1.734939549702213313e+00 2.664314866588208133e+03 1.158194354260260752e+03 6.141273822916306635e-01
1.813045082471102631e+00 2.838780902401565982e+03 1.266570291881552976e+03 6.280142638853953851e-01
1.891150615239991728e+00 3.018032026634299655e+03 1.380408028248449455e+03 6.419011454791599958e-01
1.969256148008880825e+00 3.202099284521636491e+03 1.499860616069122898e+03 6.557880270729246064e-01
2.047361680777770143e+00 3.391017404292590982e+03 1.625084843847203729e+03 6.696749086666892170e-01
