# density  energy_density  pressure   sound_speed_squared  [All in nuclear units]
2.720000000000000022e-14 2.529924618736292620e-11 1.061056609100270887e-19 3.766610435412189122e-08
1.269999999999999890e-13 1.181251617980081254e-10 4.870113551826584858e-18 6.497781477172163475e-08
6.929999999999999754e-13 6.445728594625782745e-10 1.018299070687946017e-16 3.033770597342807186e-07
6.295000000000000137e-12 5.855111460395753757e-09 5.487150723824490656e-15 1.763710043904196507e-06
1.581000000000000150e-11 1.470523320212576141e-08 2.904239460150760759e-14 3.559434472327477622e-06
3.971999999999999958e-11 3.694456170323160790e-08 1.439340266754906811e-13 6.772854871245677111e-06
9.975999999999999982e-11 9.278976412613005154e-08 6.812143616221268841e-13 1.246890511177539320e-05
2.505999999999999928e-10 2.330928829758143313e-07 3.107749196951638608e-12 2.212095130576091967e-05
6.294000000000000186e-10 5.854398883216247602e-07 1.363250409771533549e-11 3.761981047239428883e-05
1.581000000000000021e-09 1.470619631082054101e-06 5.726014178088476303e-11 6.095350986710739404e-05
3.971999999999999932e-09 3.694861084648016046e-06 2.210019573374265380e-10 8.628023653304385055e-05
5.000000000000000105e-09 4.651201787816927976e-06 3.071485916280120014e-10 9.387863480799757518e-05
9.975999999999999465e-09 9.280587964640925786e-06 8.385361004129998845e-10 1.356922228656245837e-04
1.989999999999999952e-08 1.851419242998081003e-05 2.287763168863418088e-09 1.782101978513718314e-04
3.972999999999999908e-08 3.696699295748789187e-05 6.061583099087538954e-09 2.308134738384234820e-04
7.925999999999999637e-08 7.375765469301719828e-05 1.575347858094044765e-08 2.960532096713864875e-04
1.580999999999999930e-07 1.471491184379128891e-04 3.910429618672550719e-08 3.402859755131850544e-04
1.991000000000000027e-07 1.853209783927820692e-04 5.252045687899177454e-08 3.626488188833278743e-04
3.155999999999999938e-07 2.938002528823880299e-04 9.730770378831954314e-08 4.630767356912104081e-04
5.000999999999999849e-07 4.656344063839075714e-04 1.837494945860225819e-07 5.430301232045120323e-04
6.295999999999999732e-07 5.862651417037388971e-04 2.503103884558263872e-07 5.605192962670089638e-04
9.666999999999999941e-07 9.003386739730535665e-04 4.324450868778576936e-07 5.993081670211623108e-04
1.531999999999999901e-06 1.427170885631398036e-03 7.780217275717420968e-07 7.125938556504039095e-04
2.506999999999999883e-06 2.336134972129507662e-03 1.471005394641589826e-06 8.121876172121876309e-04
3.974000000000000407e-06 3.704315759716615697e-03 2.695705763844323844e-06 9.780674166779417152e-04
4.830000000000000343e-06 4.502887798316278223e-03 3.503988717694660908e-06 1.046253037768318664e-03
6.080999999999999885e-06 5.670217999231269741e-03 4.731126407333307547e-06 1.056224360839501646e-03
7.930000000000000308e-06 7.396012414119570652e-03 6.599662989063778187e-06 1.109203753630785610e-03
9.982000000000000313e-06 9.311815711689977113e-03 8.879881089227186733e-06 1.271216815433141075e-03
1.256999999999999993e-05 1.172874412604260098e-02 1.207676739913533738e-05 1.374195438212825332e-03
1.521999999999999997e-05 1.420427250933824909e-02 1.547541302213394990e-05 1.371610497379100249e-03
1.991000000000000080e-05 1.858690797761085312e-02 2.160710455847765458e-05 1.426578142835871997e-03
2.506999999999999883e-05 2.341050104039446925e-02 2.908031724375689851e-05 1.672007475975408053e-03
2.790999999999999875e-05 2.606604784714952258e-02 3.357009132255487721e-05 1.709425557744154774e-03
3.806999999999999973e-05 3.556967988784798945e-02 4.986781576435106434e-05 1.720407281314112165e-03
5.063000000000000145e-05 4.732434580343149871e-02 7.073400252905581275e-05 1.829889149838781265e-03
6.592000000000000583e-05 6.164112392498975052e-02 9.765037643900635188e-05 1.930242980462695823e-03
8.433000000000000066e-05 7.888776783401378612e-02 1.317235490470395893e-04 2.021055815200022837e-03
1.062000000000000064e-04 9.938561165478684845e-02 1.740088341640037047e-04 2.104789529260958983e-03
1.321000000000000126e-04 1.236720406455826121e-01 2.260189757651373944e-04 2.178291718403657477e-03
1.623999999999999901e-04 1.520974545104751274e-01 2.888169908545388338e-04 2.240170365918073281e-03
1.689999999999999879e-04 1.582907717069566844e-01 3.027354772999506964e-04 2.254509350360745651e-03
1.758999999999999930e-04 1.647661861691531171e-01 3.173785841705756782e-04 2.268169273277113179e-03
1.830000000000000029e-04 1.714298948183871907e-01 3.325196584577469103e-04 2.276170334580628063e-03
1.901999999999999882e-04 1.781880600978280049e-01 3.479577791899843742e-04 2.292561569242367037e-03
1.977000000000000079e-04 1.852284385240466902e-01 3.641242634600037713e-04 2.299943765467868384e-03
2.054000000000000053e-04 1.924572004474696396e-01 3.808304060475003897e-04 2.322187632288155723e-03
2.079000000000000119e-04 1.948043378760714872e-01 3.864137987380476553e-04 2.435429768083530178e-03
2.081999999999999921e-04 1.950859988578999005e-01 3.870314100985603909e-04 1.950065624557156818e-03
2.090999999999999868e-04 1.959309855029948977e-01 3.881261957135444685e-04 6.411875526909013856e-04
2.159999999999999919e-04 2.024093317906446865e-01 3.940874488768042125e-04 1.199166870571831411e-03
2.231000000000000019e-04 2.090756740932291913e-01 4.013938420547467825e-04 9.928616047829054436e-04
2.311000000000000066e-04 2.165873044433437034e-01 4.085241694843774404e-04 9.056166966301716637e-04
2.401000000000000085e-04 2.250381721984245909e-01 4.159700687886608468e-04 8.565463878902855599e-04
2.500000000000000052e-04 2.343344406330727658e-01 4.237602369176299592e-04 8.194318812157330018e-04
2.642999999999999733e-04 2.477629128650125634e-01 4.345596643180389446e-04 7.890063723638815647e-04
3.052999999999999941e-04 2.862671839140227270e-01 4.644058706720978241e-04 7.612775562167708662e-04
3.533000000000000224e-04 3.313503829113090826e-01 4.987577676308450197e-04 7.626578558207241024e-04
4.075999999999999871e-04 3.823564017794535141e-01 5.381334366106255759e-04 7.813048116943254948e-04
4.679999999999999915e-04 4.390986251953180042e-01 5.832692638200615834e-04 8.096035963157804938e-04
5.341000000000000261e-04 5.012024644415256081e-01 6.346556894078133086e-04 8.452514814113673558e-04
6.059000000000000366e-04 5.686690698184251325e-01 6.930641302632923034e-04 8.862253587289389486e-04
7.661000000000000275e-04 7.192254882508629654e-01 8.328184776562496576e-04 9.702780530519144065e-04
1.262000000000000101e-03 1.185459127778160093e+00 1.338484980802662205e-03 1.198863597978450275e-03
1.894999999999999983e-03 1.780909071169781921e+00 2.123481960401060308e-03 1.437771491635827115e-03
2.673000000000000029e-03 2.513147344746868850e+00 3.261860252001994032e-03 1.671524566936786766e-03
3.605999999999999830e-03 3.391736073717691369e+00 4.828136641022434151e-03 1.893900408978071038e-03
4.709999999999999777e-03 4.431905410739045870e+00 6.903512974832482635e-03 2.096551352830673849e-03
7.496000000000000059e-03 7.058993649504918366e+00 1.289742191321638018e-02 2.466596387205546859e-03
1.119999999999999989e-02 1.055540362104863661e+01 2.212077014004794340e-02 2.809304433764861584e-03
1.600000000000000033e-02 1.509117352747679952e+01 3.559566804390756900e-02 3.132325055719984222e-03
2.206999999999999934e-02 2.083310616724802244e+01 5.457322122755020599e-02 3.477840948757840792e-03
2.947999999999999926e-02 2.785007348564149154e+01 8.049103664263126956e-02 3.909302116317729670e-03
4.268000000000000266e-02 4.036707211535221518e+01 1.353887601042819133e-01 4.862066536253286525e-03
6.219999999999999835e-02 5.891246509830522626e+01 2.419691225623893105e-01 6.630786177272363080e-03
7.316999999999999893e-02 6.935151695866235855e+01 3.161896974764099033e-01 7.588671314871411888e-03
7.595999999999999974e-02 7.200836722020332559e+01 3.371250777904805096e-01 8.170805199905812125e-03
7.685877551020407761e-02 7.286441675458000589e+01 3.441983361926962415e-01 8.354535773427790302e-03
7.775755102040816935e-02 7.372054989925538848e+01 3.514251948400149983e-01 8.528015041647600200e-03
7.865632653061224722e-02 7.457676741447639301e+01 3.587971806342981074e-01 8.691868601002794570e-03
7.955510204081632508e-02 7.543306994931887743e+01 3.663063530729945838e-01 8.846722047930948712e-03
8.045387755102040295e-02 7.628945805147499470e+01 3.739453044388241776e-01 8.993200978869625786e-03
8.135265306122449469e-02 7.714593217660478786e+01 3.817071600062366121e-01 9.131930990256388950e-03
8.225142857142857256e-02 7.800249269727686396e+01 3.895855782620308294e-01 9.263537678528806565e-03
8.315020408163265042e-02 7.885913991152091285e+01 3.975747511378053267e-01 9.388646640124443526e-03
8.404897959183672829e-02 7.971587405101296042e+01 4.056694042521698518e-01 9.507883471480861257e-03
8.494775510204082003e-02 8.057269528891299615e+01 4.138647971608975795e-01 9.621873769035633323e-03
8.584653061224489790e-02 8.142960374737332074e+01 4.221567236134227685e-01 9.731243129226317679e-03
8.674530612244897576e-02 8.228659950473567619e+01 4.305415118143055553e-01 9.836617148490487891e-03
8.764408163265305363e-02 8.314368260243243469e+01 4.390160246884792228e-01 9.938621423265701915e-03
8.854285714285714537e-02 8.400085305160730798e+01 4.475776601492864049e-01 1.003788154998952985e-02
8.944163265306122323e-02 8.485811083947019995e+01 4.562243513684807183e-01 1.013502312509953658e-02
9.034040816326530110e-02 8.571545593539913455e+01 4.649545670475359604e-01 1.023067174503328527e-02
9.123918367346939284e-02 8.657288829680211961e+01 4.737673116897535563e-01 1.032545300622833909e-02
9.213795918367347071e-02 8.743040787475077025e+01 4.826621258728047703e-01 1.041999250512227332e-02
9.303673469387754857e-02 8.828801461939653450e+01 4.916390865214784189e-01 1.051491583815264592e-02
9.393551020408162644e-02 8.914570848518022217e+01 5.006988071805260621e-01 1.061084860175702527e-02
9.483428571428570431e-02 9.000348943584523909e+01 5.098424382876206584e-01 1.070841639237297797e-02
9.573306122448979605e-02 9.086135744926262703e+01 5.190716674465507552e-01 1.080824480643806200e-02
9.663183673469387391e-02 9.171931252207798480e+01 5.283887197008793057e-01 1.091095944038985438e-02
9.753061224489795178e-02 9.257735467418760322e+01 5.377963578083948537e-01 1.101718589066590960e-02
9.842938775510204352e-02 9.343548395305272436e+01 5.472978825167722494e-01 1.112754975370380470e-02
9.932816326530612139e-02 9.429370043785810651e+01 5.568971328409504373e-01 1.124267662594109415e-02
1.002269387755101993e-01 9.515200424352303799e+01 5.665984863428181750e-01 1.136319210381535327e-02
1.011257142857142910e-01 9.601039552457039861e+01 5.764068594138704871e-01 1.148972178376414174e-02
1.020244897959183689e-01 9.686887447886141445e+01 5.863277075615784817e-01 1.162289126222502272e-02
1.029232653061224467e-01 9.772744135120098008e+01 5.963670257002829933e-01 1.176332613563556805e-02
1.038220408163265246e-01 9.858609643681941748e+01 6.065313484474839090e-01 1.191165200043333913e-02
1.047208163265306025e-01 9.944484008473658321e+01 6.168277504264656486e-01 1.206849445305590435e-02
1.056195918367346942e-01 1.003036727010126867e+02 6.272638465762536697e-01 1.223447908994082858e-02
1.065183673469387721e-01 1.011625947518919588e+02 6.378477924699533785e-01 1.241023150752568020e-02
1.074171428571428499e-01 1.020216067668415150e+02 6.485882846425794490e-01 1.259637730224801543e-02
1.083159183673469417e-01 1.028807093414928460e+02 6.594945609295272959e-01 1.279354207054541129e-02
1.092146938775510195e-01 1.037399031404874705e+02 6.705764008168915158e-01 1.300235140885542227e-02
1.101134693877550974e-01 1.045991889002320789e+02 6.818441258048816289e-01 1.322343091361562022e-02
1.110122448979591891e-01 1.054585674315672605e+02 6.933085997856237581e-01 1.345740618126357521e-02
1.119110204081632531e-01 1.063180396223518898e+02 7.049812294366826215e-01 1.370490280823684522e-02
1.128097959183673449e-01 1.071776064399686277e+02 7.168739646316796277e-01 1.396654639097299686e-02
1.137085714285714227e-01 1.080372689337525998e+02 7.289992988694091736e-01 1.424296252590959849e-02
1.146073469387755006e-01 1.088970282373467029e+02 7.413702697229080929e-01 1.453477680948421329e-02
1.155061224489795924e-01 1.097568855709864550e+02 7.540004593099514096e-01 1.484261483813441480e-02
1.164048979591836702e-01 1.106168422437179828e+02 7.669039947864890738e-01 1.516710220829775579e-02
1.173036734693877481e-01 1.114768996555506675e+02 7.800955488645711089e-01 1.550886451641180289e-02
1.182024489795918398e-01 1.123370592995489403e+02 7.935903403563302483e-01 1.586852735891413832e-02
1.191012244897959177e-01 1.131973227638630988e+02 8.074041347456282214e-01 1.624671633224230791e-02
1.199999999999999956e-01 1.140576917337051697e+02 8.215532447889991596e-01 1.664405703283389215e-02
1.229053344507196888e-01 1.168396256705661358e+02 8.697757999496056325e-01 1.802404883710396338e-02
1.258106689014393820e-01 1.196227452033685097e+02 9.218870787122549482e-01 1.942377795980497132e-02
1.287160033521590474e-01 1.224071134079883052e+02 9.779431195094007156e-01 2.084074397265779297e-02
1.316213378028787406e-01 1.251927917032576829e+02 1.037993332319452122e+00 2.227247303668568670e-02
1.345266722535984338e-01 1.279798398150136904e+02 1.102080557188376275e+00 2.371651893984793799e-02
1.374320067043181270e-01 1.307683157445295308e+02 1.170241123733405164e+00 2.517046399120742226e-02
1.403373411550378203e-01 1.335582757408796510e+02 1.242504911376361321e+00 2.663191978005038235e-02
1.432426756057574857e-01 1.363497742768473131e+02 1.318895410074833796e+00 2.809852780750152212e-02
1.461480100564771789e-01 1.391428640280209379e+02 1.399429781337365952e+00 2.956795999742498418e-02
1.490533445071968721e-01 1.419375958547668404e+02 1.484118919324369568e+00 3.103791909276934838e-02
1.519586789579165653e-01 1.447340187867974635e+02 1.572967511850050348e+00 3.250613894296691675e-02
1.548640134086362585e-01 1.475321800100841472e+02 1.665974101112424277e+00 3.397038468753417473e-02
1.577693478593559240e-01 1.503321248558870593e+02 1.763131143988867278e+00 3.542845284062036415e-02
1.606746823100756449e-01 1.531338967916974809e+02 1.864425071743733842e+00 3.687817128090890850e-02
1.635800167607953104e-01 1.559375374139093253e+02 1.969836349002577203e+00 3.831739915098094501e-02
1.664853512115150036e-01 1.587430864420502701e+02 2.079339531854676792e+00 3.974402666999493627e-02
1.693906856622346968e-01 1.615505817144208720e+02 2.192903324951830157e+00 4.115597486331545179e-02
1.722960201129543623e-01 1.643600591850027115e+02 2.310490637477142783e+00 4.255119521253018094e-02
1.752013545636740832e-01 1.671715529215078675e+02 2.432058637862633432e+00 4.392766922912600541e-02
1.781066890143937487e-01 1.699850951044543592e+02 2.557558807139136192e+00 4.528340795494441989e-02
1.810120234651134419e-01 1.728007160271595524e+02 2.686936990806334968e+00 4.661645139240474384e-02
1.839173579158331351e-01 1.756184440965539295e+02 2.820133449114620383e+00 4.792486786736364218e-02
1.868226923665528005e-01 1.784383058347241899e+02 2.957082905654255356e+00 4.920675332737170504e-02
1.897280268172725215e-01 1.812603258811028297e+02 3.097714594150761780e+00 5.046023057799036565e-02
1.926333612679921869e-01 1.840845269952237970e+02 3.241952303368720312e+00 5.168344845974001678e-02
1.955386957187118802e-01 1.869109300599768346e+02 3.389714420029427799e+00 5.287458096816774478e-02
1.984440301694315734e-01 1.897395540852877787e+02 3.540913969650778093e+00 5.403182631944181830e-02
2.013493646201512666e-01 1.925704162121676859e+02 3.695458655220825062e+00 5.515340596380702981e-02
2.042546990708709598e-01 1.954035317170688018e+02 3.853250893619323936e+00 5.623756354916201877e-02
2.071600335215906252e-01 1.982389140164941637e+02 4.014187849704447864e+00 5.728256383695183585e-02
2.100653679723103184e-01 2.010765746718100786e+02 4.178161467984745414e+00 5.828669157250363636e-02
2.129707024230300116e-01 2.039165233942131010e+02 4.345058501799220707e+00 5.924825031186876922e-02
2.158760368737497048e-01 2.067587680498066618e+02 4.514760539931351069e+00 6.016556120717421463e-02
2.187813713244693981e-01 2.096033146647434933e+02 4.687144030585685073e+00 6.103696175242629557e-02
2.216867057751890635e-01 2.124501674303978405e+02 4.862080302658648989e+00 6.186080449165320266e-02
2.245920402259087567e-01 2.152993287085242571e+02 5.039435584238172616e+00 6.263545569121800605e-02
2.274973746766284499e-01 2.181507990363730300e+02 5.219071018269775486e+00 6.335929397808098829e-02
2.304027091273481431e-01 2.210045771317231242e+02 5.400842675329942111e+00 6.403070894574205973e-02
2.333080435780678363e-01 2.238606598978062721e+02 5.584601563450808825e+00 6.464809972954710382e-02
2.362133780287875018e-01 2.267190424280873060e+02 5.770193634943532324e+00 6.520987355299963373e-02
2.391187124795072227e-01 2.295797180108761779e+02 5.957459790171154346e+00 6.571444424664907302e-02
2.420240469302268882e-01 2.324426781337407704e+02 6.146235878225523308e+00 6.616023074131159587e-02
2.449293813809465814e-01 2.353079124876990136e+02 6.336352694466339308e+00 6.654565553670611922e-02
2.478347158316662746e-01 2.381754089711621702e+02 6.527635974884333336e+00 6.686914314762276712e-02
2.507400502823859956e-01 2.410451536936095636e+02 6.719906387255123015e+00 6.712911852868246043e-02
2.536453847331056055e-01 2.439171309789705333e+02 6.912979519054095690e+00 6.732400547935336876e-02
2.565507191838253265e-01 2.467913233686952310e+02 7.106665862107599985e+00 6.745222503068662445e-02
2.594560536345450474e-01 2.496677116244918295e+02 7.300770793960309035e+00 6.751219381526653296e-02
2.623613880852647129e-01 2.525462747307163909e+02 7.495094555944047165e+00 6.750232242189216358e-02
3.386397271039327528e-01 3.294248068414485715e+02 1.781488541772984036e+01 1.986326647971793646e-01
4.149180661226008482e-01 4.097230345246127285e+02 3.919030242106135375e+01 3.297630071724666490e-01
4.911964051412689436e-01 4.949788270399023986e+02 7.312807512565839829e+01 4.608933495477539610e-01
5.674747441599370390e-01 5.865157484675384012e+02 1.216351709286626459e+02 5.920236919230412731e-01
6.437530831786051344e-01 6.855980925979008589e+02 1.872056113848740893e+02 7.231540342983285852e-01
7.200314221972731188e-01 7.933756783725516470e+02 2.627209867159604073e+02 6.814714669205134134e-01
7.963097612159411032e-01 9.091935044995198041e+02 3.376824196359078201e+02 6.168864192950824776e-01
8.725881002346091986e-01 1.032205854796456151e+03 4.181446149589834249e+02 6.881360094644070058e-01
9.488664392532772940e-01 1.162498494466997954e+03 4.923014564776039492e+02 4.590699419823193184e-01
1.025144778271945389e+00 1.297928689343989390e+03 5.532954272586711113e+02 4.422599746298999657e-01
1.101423117290613485e+00 1.437891131850138891e+03 6.139834048484942741e+02 4.254500072774806130e-01
1.177701456309281580e+00 1.582039946019369381e+03 6.740682500332363816e+02 4.086400399250612603e-01
1.253979795327949676e+00 1.730072253206530149e+03 7.341479126523181549e+02 4.032568163200611622e-01
1.330258134346617549e+00 1.881782984465800837e+03 7.949665377293375741e+02 3.986685665723234684e-01
1.406536473365285644e+00 2.037002836722624806e+03 8.564809019154588441e+02 3.940803168245857746e-01
1.482814812383953740e+00 2.195576581502843965e+03 9.185978801211816744e+02 3.894920670768480808e-01
1.559093151402621835e+00 2.357360353657386895e+03 9.812309016832537054e+02 3.849038173291103870e-01
1.635371490421289931e+00 2.522220283858336643e+03 1.044299214863257021e+03 3.803155675813726933e-01
1.711649829439958026e+00 2.690031355113073914e+03 1.107727268317091557e+03 3.757273178336349995e-01
1.787928168458626121e+00 2.860676437967079437e+03 1.171444186185929311e+03 3.711390680858973612e-01
1.864206507477293995e+00 3.034045469818236143e+03 1.235383318959673943e+03 3.665508183381596674e-01
1.940484846495962090e+00 3.210034751624925775e+03 1.299481856289543657e+03 3.619625685904219736e-01
2.016763185514630408e+00 3.388546341119596036e+03 1.363680490916492090e+03 3.573743188426842798e-01
2.093041524533298503e+00 3.569487526021415761e+03 1.427923125133281474e+03 3.527860690949465861e-01
