# density  energy_density  pressure   sound_speed_squared  [All in nuclear units]
2.720000000000000022e-14 2.529924618736292620e-11 1.061056609100270887e-19 3.766610435412189122e-08
1.269999999999999890e-13 1.181251617980081254e-10 4.870113551826584858e-18 6.497781477172163475e-08
6.929999999999999754e-13 6.445728594625782745e-10 1.018299070687946017e-16 3.033770597342807186e-07
6.295000000000000137e-12 5.855111460395753757e-09 5.487150723824490656e-15 1.763710043904196507e-06
1.581000000000000150e-11 1.470523320212576141e-08 2.904239460150760759e-14 3.559434472327477622e-06
3.971999999999999958e-11 3.694456170323160790e-08 1.439340266754906811e-13 6.772854871245677111e-06
9.975999999999999982e-11 9.278976412613005154e-08 6.812143616221268841e-13 1.246890511177539320e-05
2.505999999999999928e-10 2.330928829758143313e-07 3.107749196951638608e-12 2.212095130576091967e-05
6.294000000000000186e-10 5.854398883216247602e-07 1.363250409771533549e-11 3.761981047239428883e-05
1.581000000000000021e-09 1.470619631082054101e-06 5.726014178088476303e-11 6.095350986710739404e-05
3.971999999999999932e-09 3.694861084648016046e-06 2.210019573374265380e-10 8.628023653304385055e-05
5.000000000000000105e-09 4.651201787816927976e-06 3.071485916280120014e-10 9.387863480799757518e-05
9.975999999999999465e-09 9.280587964640925786e-06 8.385361004129998845e-10 1.356922228656245837e-04
1.989999999999999952e-08 1.851419242998081003e-05 2.287763168863418088e-09 1.782101978513718314e-04
3.972999999999999908e-08 3.696699295748789187e-05 6.061583099087538954e-09 2.308134738384234820e-04
7.925999999999999637e-08 7.375765469301719828e-05 1.575347858094044765e-08 2.960532096713864875e-04
1.580999999999999930e-07 1.471491184379128891e-04 3.910429618672550719e-08 3.402859755131850544e-04
1.991000000000000027e-07 1.853209783927820692e-04 5.252045687899177454e-08 3.626488188833278743e-04
3.155999999999999938e-07 2.938002528823880299e-04 9.730770378831954314e-08 4.630767356912104081e-04
5.000999999999999849e-07 4.656344063839075714e-04 1.837494945860225819e-07 5.430301232045120323e-04
6.295999999999999732e-07 5.862651417037388971e-04 2.503103884558263872e-07 5.605192962670089638e-04
9.666999999999999941e-07 9.003386739730535665e-04 4.324450868778576936e-07 5.993081670211623108e-04
1.531999999999999901e-06 1.427170885631398036e-03 7.780217275717420968e-07 7.125938556504039095e-04
2.506999999999999883e-06 2.336134972129507662e-03 1.471005394641589826e-06 8.121876172121876309e-04
3.974000000000000407e-06 3.704315759716615697e-03 2.695705763844323844e-06 9.780674166779417152e-04
4.830000000000000343e-06 4.502887798316278223e-03 3.503988717694660908e-06 1.046253037768318664e-03
6.080999999999999885e-06 5.670217999231269741e-03 4.731126407333307547e-06 1.056224360839501646e-03
7.930000000000000308e-06 7.396012414119570652e-03 6.599662989063778187e-06 1.109203753630785610e-03
9.982000000000000313e-06 9.311815711689977113e-03 8.879881089227186733e-06 1.271216815433141075e-03
1.256999999999999993e-05 1.172874412604260098e-02 1.207676739913533738e-05 1.374195438212825332e-03
1.521999999999999997e-05 1.420427250933824909e-02 1.547541302213394990e-05 1.371610497379100249e-03
1.991000000000000080e-05 1.858690797761085312e-02 2.160710455847765458e-05 1.426578142835871997e-03
2.506999999999999883e-05 2.341050104039446925e-02 2.908031724375689851e-05 1.672007475975408053e-03
2.790999999999999875e-05 2.606604784714952258e-02 3.357009132255487721e-05 1.709425557744154774e-03
3.806999999999999973e-05 3.556967988784798945e-02 4.986781576435106434e-05 1.720407281314112165e-03
5.063000000000000145e-05 4.732434580343149871e-02 7.073400252905581275e-05 1.829889149838781265e-03
6.592000000000000583e-05 6.164112392498975052e-02 9.765037643900635188e-05 1.930242980462695823e-03
8.433000000000000066e-05 7.888776783401378612e-02 1.317235490470395893e-04 2.021055815200022837e-03
1.062000000000000064e-04 9.938561165478684845e-02 1.740088341640037047e-04 2.104789529260958983e-03
1.321000000000000126e-04 1.236720406455826121e-01 2.260189757651373944e-04 2.178291718403657477e-03
1.623999999999999901e-04 1.520974545104751274e-01 2.888169908545388338e-04 2.240170365918073281e-03
1.689999999999999879e-04 1.582907717069566844e-01 3.027354772999506964e-04 2.254509350360745651e-03
1.758999999999999930e-04 1.647661861691531171e-01 3.173785841705756782e-04 2.268169273277113179e-03
1.830000000000000029e-04 1.714298948183871907e-01 3.325196584577469103e-04 2.276170334580628063e-03
1.901999999999999882e-04 1.781880600978280049e-01 3.479577791899843742e-04 2.292561569242367037e-03
1.977000000000000079e-04 1.852284385240466902e-01 3.641242634600037713e-04 2.299943765467868384e-03
2.054000000000000053e-04 1.924572004474696396e-01 3.808304060475003897e-04 2.322187632288155723e-03
2.079000000000000119e-04 1.948043378760714872e-01 3.864137987380476553e-04 2.435429768083530178e-03
2.081999999999999921e-04 1.950859988578999005e-01 3.870314100985603909e-04 1.950065624557156818e-03
2.090999999999999868e-04 1.959309855029948977e-01 3.881261957135444685e-04 6.411875526909013856e-04
2.159999999999999919e-04 2.024093317906446865e-01 3.940874488768042125e-04 1.199166870571831411e-03
2.231000000000000019e-04 2.090756740932291913e-01 4.013938420547467825e-04 9.928616047829054436e-04
2.311000000000000066e-04 2.165873044433437034e-01 4.085241694843774404e-04 9.056166966301716637e-04
2.401000000000000085e-04 2.250381721984245909e-01 4.159700687886608468e-04 8.565463878902855599e-04
2.500000000000000052e-04 2.343344406330727658e-01 4.237602369176299592e-04 8.194318812157330018e-04
2.642999999999999733e-04 2.477629128650125634e-01 4.345596643180389446e-04 7.890063723638815647e-04
3.052999999999999941e-04 2.862671839140227270e-01 4.644058706720978241e-04 7.612775562167708662e-04
3.533000000000000224e-04 3.313503829113090826e-01 4.987577676308450197e-04 7.626578558207241024e-04
4.075999999999999871e-04 3.823564017794535141e-01 5.381334366106255759e-04 7.813048116943254948e-04
4.679999999999999915e-04 4.390986251953180042e-01 5.832692638200615834e-04 8.096035963157804938e-04
5.341000000000000261e-04 5.012024644415256081e-01 6.346556894078133086e-04 8.452514814113673558e-04
6.059000000000000366e-04 5.686690698184251325e-01 6.930641302632923034e-04 8.862253587289389486e-04
7.661000000000000275e-04 7.192254882508629654e-01 8.328184776562496576e-04 9.702780530519144065e-04
1.262000000000000101e-03 1.185459127778160093e+00 1.338484980802662205e-03 1.198863597978450275e-03
1.894999999999999983e-03 1.780909071169781921e+00 2.123481960401060308e-03 1.437771491635827115e-03
2.673000000000000029e-03 2.513147344746868850e+00 3.261860252001994032e-03 1.671524566936786766e-03
3.605999999999999830e-03 3.391736073717691369e+00 4.828136641022434151e-03 1.893900408978071038e-03
4.709999999999999777e-03 4.431905410739045870e+00 6.903512974832482635e-03 2.096551352830673849e-03
7.496000000000000059e-03 7.058993649504918366e+00 1.289742191321638018e-02 2.466596387205546859e-03
1.119999999999999989e-02 1.055540362104863661e+01 2.212077014004794340e-02 2.809304433764861584e-03
1.600000000000000033e-02 1.509117352747679952e+01 3.559566804390756900e-02 3.132325055719984222e-03
2.206999999999999934e-02 2.083310616724802244e+01 5.457322122755020599e-02 3.477840948757840792e-03
2.947999999999999926e-02 2.785007348564149154e+01 8.049103664263126956e-02 3.909302116317729670e-03
4.268000000000000266e-02 4.036707211535221518e+01 1.353887601042819133e-01 4.862066536253286525e-03
6.219999999999999835e-02 5.891246509830522626e+01 2.419691225623893105e-01 6.630786177272363080e-03
7.316999999999999893e-02 6.935151695866235855e+01 3.161896974764099033e-01 7.588671314871411888e-03
7.595999999999999974e-02 7.200836722020332559e+01 3.371250777904805096e-01 8.170805199905813859e-03
7.685877551020407761e-02 7.286441678877912409e+01 3.442041887500055797e-01 8.368207845414156118e-03
7.775755102040816935e-02 7.372055012601713031e+01 3.514523738015458698e-01 8.564158327947636595e-03
7.865632653061224722e-02 7.457676821134420209e+01 3.588684802961386033e-01 8.758771766670940540e-03
7.955510204081632508e-02 7.543307198919106327e+01 3.664514540713348922e-01 8.952163280748772281e-03
8.045387755102040295e-02 7.628946237129187580e+01 3.742003394767244862e-01 9.144447989345832681e-03
8.135265306122449469e-02 7.714594023888029994e+01 3.821142794022154288e-01 9.335741011626817396e-03
8.225142857142857256e-02 7.800250644478992967e+01 3.901925153088904308e-01 9.526157466756423817e-03
8.315020408163265042e-02 7.885916181546228643e+01 3.984343872622804206e-01 9.715812473899351071e-03
8.404897959183672829e-02 7.971590715286916407e+01 4.068393339679050591e-01 9.904821152220301753e-03
8.494775510204082003e-02 8.057274323635247981e+01 4.154068928089478252e-01 1.009329862088397152e-02
8.584653061224489790e-02 8.142967082438744342e+01 4.241366998859414927e-01 1.028135999905505429e-02
8.674530612244897576e-02 8.228669065627096302e+01 4.330284900583543095e-01 1.046912040589825267e-02
8.764408163265305363e-02 8.314380345374240733e+01 4.420820969879740714e-01 1.065669496057826751e-02
8.854285714285714537e-02 8.400100992253643994e+01 4.512974531840007186e-01 1.084419878225979968e-02
8.944163265306122323e-02 8.485831075387459066e+01 4.606745900497637436e-01 1.103174699010754135e-02
9.034040816326530110e-02 8.571570662589670064e+01 4.702136379309937442e-01 1.121945470328618993e-02
9.123918367346939284e-02 8.657319820503603580e+01 4.799148261655794556e-01 1.140743704096044801e-02
9.213795918367347071e-02 8.743078614734093890e+01 4.897784831347539169e-01 1.159580912229501472e-02
9.303673469387754857e-02 8.828847109974479679e+01 4.998050363156603670e-01 1.178468606645458397e-02
9.393551020408162644e-02 8.914625370128834447e+01 5.099950123352502418e-01 1.197418299260386183e-02
9.483428571428570431e-02 9.000413458429477487e+01 5.203490370254777453e-01 1.216441501990753703e-02
9.573306122448979605e-02 9.086211437550169023e+01 5.308678354797575771e-01 1.235549726753032256e-02
9.663183673469387391e-02 9.172019369715006576e+01 5.415522321106585046e-01 1.254754485463690367e-02
9.753061224489795178e-02 9.257837316803455963e+01 5.524031507088128512e-01 1.274067290039198122e-02
9.842938775510204352e-02 9.343665340451431689e+01 5.634216145030225276e-01 1.293499652396025955e-02
9.932816326530612139e-02 9.429503502148835992e+01 5.746087462215498931e-01 1.313063084450643084e-02
1.002269387755101993e-01 9.515351863333556537e+01 5.859657681545872299e-01 1.332769098119519595e-02
1.011257142857142910e-01 9.601210485482212675e+01 5.974940022178981680e-01 1.352629205319125748e-02
1.020244897959183689e-01 9.687079430197688623e+01 6.091948700176309517e-01 1.372654917965930588e-02
1.029232653061224467e-01 9.772958759293639730e+01 6.210698929163098736e-01 1.392857747976404548e-02
1.038220408163265246e-01 9.858848534876119629e+01 6.331206921000074317e-01 1.413249207267017540e-02
1.047208163265306025e-01 9.944748819422464692e+01 6.453489886467098646e-01 1.433840807754238958e-02
1.056195918367346942e-01 1.003065967585745000e+02 6.577566035958888335e-01 1.454644061354539233e-02
1.065183673469387721e-01 1.011658116762699109e+02 6.703454580192927947e-01 1.475670479984387586e-02
1.074171428571428499e-01 1.020251335876941141e+02 6.831175730929812673e-01 1.496931575560254447e-02
1.083159183673469417e-01 1.028845631398432090e+02 6.960750701706178711e-01 1.518438859998609385e-02
1.092146938775510195e-01 1.037441009869932600e+02 7.092201708580487818e-01 1.540203845215922310e-02
1.101134693877550974e-01 1.046037477913462794e+02 7.225551970891938014e-01 1.562238043128662962e-02
1.110122448979591891e-01 1.054635042236547093e+02 7.360825712032745827e-01 1.584552965653301948e-02
1.119110204081632531e-01 1.063233709638277560e+02 7.498048160234122017e-01 1.607160124706307619e-02
1.128097959183673449e-01 1.071833487015173887e+02 7.637245549366297181e-01 1.630071032204150755e-02
1.137085714285714227e-01 1.080434381366876693e+02 7.778445119752851467e-01 1.653297200063301442e-02
1.146073469387755006e-01 1.089036399801654227e+02 7.921675118999823573e-01 1.676850140200229072e-02
1.155061224489795924e-01 1.097639549541756736e+02 8.066964802839882154e-01 1.700741364531404079e-02
1.164048979591836702e-01 1.106243837928598737e+02 8.214344435991995930e-01 1.724982384973295507e-02
1.173036734693877481e-01 1.114849272427791789e+02 8.363845293037025508e-01 1.749584713442373790e-02
1.182024489795918398e-01 1.123455860634037720e+02 8.515499659309621050e-01 1.774559861855108667e-02
1.191012244897959177e-01 1.132063610275862544e+02 8.669340831806897629e-01 1.799919342127970223e-02
1.199999999999999956e-01 1.140672529220235560e+02 8.825403120114344580e-01 1.825674666177427505e-02
1.225608525479410515e-01 1.165208160501511543e+02 9.282583874603644869e-01 1.900980778987176184e-02
1.251217050958821075e-01 1.189753540958389522e+02 9.758657667253795021e-01 1.978137628602353107e-02
1.276825576438231635e-01 1.214308862522155437e+02 1.025409309707289163e+00 2.057107836664416947e-02
1.302434101917642195e-01 1.238874318740297298e+02 1.076935035919426076e+00 2.137851978427282584e-02
1.328042627397052755e-01 1.263450104511086352e+02 1.130488075382456881e+00 2.220328640860084676e-02
1.353651152876463315e-01 1.288036415829277814e+02 1.186112620679374619e+00 2.304494478242425509e-02
1.379259678355873597e-01 1.312633449542088329e+02 1.243851880105380170e+00 2.390304265488533628e-02
1.404868203835284435e-01 1.337241403114691991e+02 1.303748031853348976e+00 2.477710949414374877e-02
1.430476729314694717e-01 1.361860474404566332e+02 1.365842179181042670e+00 2.566665698142492347e-02
1.456085254794105277e-01 1.386490861444045208e+02 1.430174306511321936e+00 2.657117948822880840e-02
1.481693780273515837e-01 1.411132762230534752e+02 1.496783236421226571e+00 2.749015453832974812e-02
1.507302305752926397e-01 1.435786374523871700e+02 1.565706587480198753e+00 2.842304325607691515e-02
1.532910831232336957e-01 1.460451895650357130e+02 1.636980732901746505e+00 2.936929080238820378e-02
1.558519356711747517e-01 1.485129522313048085e+02 1.710640759976672420e+00 3.032832679973648110e-02
1.584127882191158077e-01 1.509819450407914303e+02 1.786720430259589820e+00 3.129956574734150260e-02
1.609736407670568636e-01 1.534521874845502225e+02 1.865252140483856680e+00 3.228240742770755595e-02
1.635344933149979196e-01 1.559236989377790223e+02 1.946266884183311063e+00 3.327623730558443987e-02
1.660953458629389756e-01 1.583964986429938619e+02 2.029794214002304198e+00 3.428042692037391176e-02
1.686561984108800316e-01 1.608706056936640607e+02 2.115862204678520708e+00 3.529433427295883968e-02
1.712170509588210876e-01 1.633460390182860635e+02 2.204497416685980760e+00 3.631730420789181651e-02
1.737779035067621436e-01 1.658228173648704171e+02 2.295724860528424838e+00 3.734866879184865762e-02
1.763387560547031718e-01 1.683009592858214489e+02 2.389567961676042351e+00 3.838774768922473962e-02
1.788996086026442556e-01 1.707804831231912033e+02 2.486048526141204196e+00 3.943384853573182053e-02
1.814604611505852838e-01 1.732614069942893309e+02 2.585186706691493086e+00 4.048626731083555808e-02
1.840213136985263676e-01 1.757437487776327600e+02 2.687000969701020647e+00 4.154428870986413141e-02
1.865821662464673958e-01 1.782275260992211372e+02 2.791508062643537791e+00 4.260718651660939937e-02
1.891430187944084795e-01 1.807127563191233719e+02 2.898722982233575607e+00 4.367422397723982885e-02
1.917038713423495078e-01 1.831994565183643431e+02 3.008658943224335580e+00 4.474465417634392039e-02
1.942647238902905638e-01 1.856876434860993754e+02 3.121327347873809721e+00 4.581772041592772904e-02
1.968255764382316197e-01 1.881773337070671630e+02 3.236737756093124307e+00 4.689265659819500526e-02
1.993864289861726757e-01 1.906685433493119319e+02 3.354897856293888925e+00 4.796868761295135924e-02
2.019472815341137317e-01 1.931612882521660026e+02 3.475813436953965940e+00 4.904502973048362191e-02
2.045081340820547877e-01 1.956555839144870390e+02 3.599488358923867537e+00 5.012089100078343656e-02
2.070689866299958437e-01 1.981514454831408614e+02 3.725924528498772315e+00 5.119547165999968619e-02
2.096298391779368997e-01 2.006488877417275773e+02 3.855121871284013846e+00 5.226796454502538603e-02
2.121906917258779557e-01 2.031479250995427037e+02 3.987078306884825007e+00 5.333755551716030247e-02
2.147515442738189839e-01 2.056485715807722841e+02 4.121789724454079540e+00 5.440342389577111637e-02
2.173123968217600677e-01 2.081508408139158917e+02 4.259249959134843166e+00 5.546474290296134896e-02
2.198732493697010959e-01 2.106547460214359546e+02 4.399450769437639686e+00 5.652068012024010629e-02
2.224341019176421796e-01 2.131603000096336871e+02 4.542381815595641470e+00 5.757039795823040013e-02
2.249949544655832079e-01 2.156675151587442372e+02 4.688030638944117534e+00 5.861305414048133267e-02
2.275558070135242916e-01 2.181764034132572760e+02 4.836382642374033480e+00 5.964780220248442483e-02
2.301166595614653199e-01 2.206869762724577413e+02 4.987421071912957693e+00 6.067379200702164438e-02
2.326775121094063759e-01 2.231992447811898899e+02 5.141126999490172267e+00 6.169017027701056977e-02
2.352383646573474318e-01 2.257132195208450298e+02 5.297479306946322630e+00 6.269608114704039448e-02
2.377992172052884878e-01 2.282289106005743236e+02 5.456454671352026331e+00 6.369066673498882669e-02
2.403600697532295438e-01 2.307463276487303006e+02 5.618027551702553524e+00 6.467306773402937969e-02
2.429209223011705998e-01 2.332654798045365965e+02 5.782170177061423999e+00 6.564242402868722404e-02
2.454817748491116558e-01 2.357863757099954398e+02 5.948852536228724119e+00 6.659787533313124563e-02
3.221045957705583329e-01 3.125900823326429077e+02 1.619689217777259671e+01 1.978079645590587188e-01
3.987274166920050655e-01 3.929901843635591945e+02 3.754305075629868327e+01 3.290180537849862752e-01
4.753502376134517426e-01 4.785748833779182405e+02 7.155962211499999626e+01 4.602281430109137483e-01
5.519730585348984198e-01 5.707047343305748655e+02 1.203330829875552439e+02 5.914382322368412215e-01
6.285958794563450969e-01 6.706806052971099916e+02 1.864518794026483590e+02 7.226483214627686946e-01
7.052187003777918850e-01 7.797287509353272981e+02 2.651449801396017278e+02 7.212720919038502210e-01
7.818415212992384511e-01 8.975687591421714160e+02 3.439799408869076842e+02 6.228555062039680124e-01
8.584643422206852392e-01 1.022796180949609493e+03 4.155366419370374160e+02 5.244389205040855817e-01
9.350871631421318053e-01 1.153997605138595191e+03 4.776804026262003049e+02 4.260223348042034841e-01
1.011709984063578593e+00 1.289924676812833241e+03 5.321825446595329367e+02 3.771324010803455140e-01
1.088332804985025160e+00 1.429788914247536695e+03 5.815402838042614349e+02 3.295891186568483122e-01
1.164955625906471948e+00 1.572933517295574575e+03 6.252655181759148491e+02 2.820458362333509994e-01
1.241578446827918736e+00 1.718755605281342469e+03 6.628886627227331019e+02 2.345025538098537143e-01
1.318201267749365302e+00 1.866700871734385373e+03 6.940365669336622432e+02 1.869592713863565403e-01
1.394824088670811868e+00 2.016260419118342497e+03 7.184227422852306972e+02 1.394159889628593940e-01
1.471446909592258656e+00 2.166967774827524863e+03 7.358383644374439427e+02 9.187270653936208120e-02
1.548069730513705444e+00 2.318396080149623231e+03 7.461439978471079257e+02 4.432942411586476839e-02
1.624692551435152010e+00 2.470234020258895271e+03 7.525505905228820893e+02 4.006304345721472399e-02
1.701315372356598798e+00 2.622482168160187939e+03 7.640318659796838574e+02 1.106303923069335143e-01
1.777938193278045365e+00 2.775479907617569552e+03 7.863757560172226704e+02 1.811977411566521035e-01
1.854561014199492153e+00 2.929667378125574942e+03 8.197836847375131129e+02 2.517650900063708730e-01
1.931183835120938719e+00 3.085458293089884137e+03 8.645427804089360961e+02 3.223324388560894205e-01
2.007806656042385729e+00 3.243246397982829876e+03 9.210207245193039398e+02 3.928997877058084121e-01
2.084429476963832517e+00 3.403410775726098109e+03 9.896623874462231925e+02 4.634671365555271816e-01
