# density  energy_density  pressure   sound_speed_squared  [All in nuclear units]
2.720000000000000022e-14 2.529924618736292620e-11 1.061056609100270887e-19 3.766610435412189122e-08
1.269999999999999890e-13 1.181251617980081254e-10 4.870113551826584858e-18 6.497781477172163475e-08
6.929999999999999754e-13 6.445728594625782745e-10 1.018299070687946017e-16 3.033770597342807186e-07
6.295000000000000137e-12 5.855111460395753757e-09 5.487150723824490656e-15 1.763710043904196507e-06
1.581000000000000150e-11 1.470523320212576141e-08 2.904239460150760759e-14 3.559434472327477622e-06
3.971999999999999958e-11 3.694456170323160790e-08 1.439340266754906811e-13 6.772854871245677111e-06
9.975999999999999982e-11 9.278976412613005154e-08 6.812143616221268841e-13 1.246890511177539320e-05
2.505999999999999928e-10 2.330928829758143313e-07 3.107749196951638608e-12 2.212095130576091967e-05
6.294000000000000186e-10 5.854398883216247602e-07 1.363250409771533549e-11 3.761981047239428883e-05
1.581000000000000021e-09 1.470619631082054101e-06 5.726014178088476303e-11 6.095350986710739404e-05
3.971999999999999932e-09 3.694861084648016046e-06 2.210019573374265380e-10 8.628023653304385055e-05
5.000000000000000105e-09 4.651201787816927976e-06 3.071485916280120014e-10 9.387863480799757518e-05
9.975999999999999465e-09 9.280587964640925786e-06 8.385361004129998845e-10 1.356922228656245837e-04
1.989999999999999952e-08 1.851419242998081003e-05 2.287763168863418088e-09 1.782101978513718314e-04
3.972999999999999908e-08 3.696699295748789187e-05 6.061583099087538954e-09 2.308134738384234820e-04
7.925999999999999637e-08 7.375765469301719828e-05 1.575347858094044765e-08 2.960532096713864875e-04
1.580999999999999930e-07 1.471491184379128891e-04 3.910429618672550719e-08 3.402859755131850544e-04
1.991000000000000027e-07 1.853209783927820692e-04 5.252045687899177454e-08 3.626488188833278743e-04
3.155999999999999938e-07 2.938002528823880299e-04 9.730770378831954314e-08 4.630767356912104081e-04
5.000999999999999849e-07 4.656344063839075714e-04 1.837494945860225819e-07 5.430301232045120323e-04
6.295999999999999732e-07 5.862651417037388971e-04 2.503103884558263872e-07 5.605192962670089638e-04
9.666999999999999941e-07 9.003386739730535665e-04 4.324450868778576936e-07 5.993081670211623108e-04
1.531999999999999901e-06 1.427170885631398036e-03 7.780217275717420968e-07 7.125938556504039095e-04
2.506999999999999883e-06 2.336134972129507662e-03 1.471005394641589826e-06 8.121876172121876309e-04
3.974000000000000407e-06 3.704315759716615697e-03 2.695705763844323844e-06 9.780674166779417152e-04
4.830000000000000343e-06 4.502887798316278223e-03 3.503988717694660908e-06 1.046253037768318664e-03
6.080999999999999885e-06 5.670217999231269741e-03 4.731126407333307547e-06 1.056224360839501646e-03
7.930000000000000308e-06 7.396012414119570652e-03 6.599662989063778187e-06 1.109203753630785610e-03
9.982000000000000313e-06 9.311815711689977113e-03 8.879881089227186733e-06 1.271216815433141075e-03
1.256999999999999993e-05 1.172874412604260098e-02 1.207676739913533738e-05 1.374195438212825332e-03
1.521999999999999997e-05 1.420427250933824909e-02 1.547541302213394990e-05 1.371610497379100249e-03
1.991000000000000080e-05 1.858690797761085312e-02 2.160710455847765458e-05 1.426578142835871997e-03
2.506999999999999883e-05 2.341050104039446925e-02 2.908031724375689851e-05 1.672007475975408053e-03
2.790999999999999875e-05 2.606604784714952258e-02 3.357009132255487721e-05 1.709425557744154774e-03
3.806999999999999973e-05 3.556967988784798945e-02 4.986781576435106434e-05 1.720407281314112165e-03
5.063000000000000145e-05 4.732434580343149871e-02 7.073400252905581275e-05 1.829889149838781265e-03
6.592000000000000583e-05 6.164112392498975052e-02 9.765037643900635188e-05 1.930242980462695823e-03
8.433000000000000066e-05 7.888776783401378612e-02 1.317235490470395893e-04 2.021055815200022837e-03
1.062000000000000064e-04 9.938561165478684845e-02 1.740088341640037047e-04 2.104789529260958983e-03
1.321000000000000126e-04 1.236720406455826121e-01 2.260189757651373944e-04 2.178291718403657477e-03
1.623999999999999901e-04 1.520974545104751274e-01 2.888169908545388338e-04 2.240170365918073281e-03
1.689999999999999879e-04 1.582907717069566844e-01 3.027354772999506964e-04 2.254509350360745651e-03
1.758999999999999930e-04 1.647661861691531171e-01 3.173785841705756782e-04 2.268169273277113179e-03
1.830000000000000029e-04 1.714298948183871907e-01 3.325196584577469103e-04 2.276170334580628063e-03
1.901999999999999882e-04 1.781880600978280049e-01 3.479577791899843742e-04 2.292561569242367037e-03
1.977000000000000079e-04 1.852284385240466902e-01 3.641242634600037713e-04 2.299943765467868384e-03
2.054000000000000053e-04 1.924572004474696396e-01 3.808304060475003897e-04 2.322187632288155723e-03
2.079000000000000119e-04 1.948043378760714872e-01 3.864137987380476553e-04 2.435429768083530178e-03
2.081999999999999921e-04 1.950859988578999005e-01 3.870314100985603909e-04 1.950065624557156818e-03
2.090999999999999868e-04 1.959309855029948977e-01 3.881261957135444685e-04 6.411875526909013856e-04
2.159999999999999919e-04 2.024093317906446865e-01 3.940874488768042125e-04 1.199166870571831411e-03
2.231000000000000019e-04 2.090756740932291913e-01 4.013938420547467825e-04 9.928616047829054436e-04
2.311000000000000066e-04 2.165873044433437034e-01 4.085241694843774404e-04 9.056166966301716637e-04
2.401000000000000085e-04 2.250381721984245909e-01 4.159700687886608468e-04 8.565463878902855599e-04
2.500000000000000052e-04 2.343344406330727658e-01 4.237602369176299592e-04 8.194318812157330018e-04
2.642999999999999733e-04 2.477629128650125634e-01 4.345596643180389446e-04 7.890063723638815647e-04
3.052999999999999941e-04 2.862671839140227270e-01 4.644058706720978241e-04 7.612775562167708662e-04
3.533000000000000224e-04 3.313503829113090826e-01 4.987577676308450197e-04 7.626578558207241024e-04
4.075999999999999871e-04 3.823564017794535141e-01 5.381334366106255759e-04 7.813048116943254948e-04
4.679999999999999915e-04 4.390986251953180042e-01 5.832692638200615834e-04 8.096035963157804938e-04
5.341000000000000261e-04 5.012024644415256081e-01 6.346556894078133086e-04 8.452514814113673558e-04
6.059000000000000366e-04 5.686690698184251325e-01 6.930641302632923034e-04 8.862253587289389486e-04
7.661000000000000275e-04 7.192254882508629654e-01 8.328184776562496576e-04 9.702780530519144065e-04
1.262000000000000101e-03 1.185459127778160093e+00 1.338484980802662205e-03 1.198863597978450275e-03
1.894999999999999983e-03 1.780909071169781921e+00 2.123481960401060308e-03 1.437771491635827115e-03
2.673000000000000029e-03 2.513147344746868850e+00 3.261860252001994032e-03 1.671524566936786766e-03
3.605999999999999830e-03 3.391736073717691369e+00 4.828136641022434151e-03 1.893900408978071038e-03
4.709999999999999777e-03 4.431905410739045870e+00 6.903512974832482635e-03 2.096551352830673849e-03
7.496000000000000059e-03 7.058993649504918366e+00 1.289742191321638018e-02 2.466596387205546859e-03
1.119999999999999989e-02 1.055540362104863661e+01 2.212077014004794340e-02 2.809304433764861584e-03
1.600000000000000033e-02 1.509117352747679952e+01 3.559566804390756900e-02 3.132325055719984222e-03
2.206999999999999934e-02 2.083310616724802244e+01 5.457322122755020599e-02 3.477840948757840792e-03
2.947999999999999926e-02 2.785007348564149154e+01 8.049103664263126956e-02 3.909302116317729670e-03
4.268000000000000266e-02 4.036707211535221518e+01 1.353887601042819133e-01 4.862066536253286525e-03
6.219999999999999835e-02 5.891246509830522626e+01 2.419691225623893105e-01 6.630786177272363080e-03
7.316999999999999893e-02 6.935151695866235855e+01 3.161896974764099033e-01 7.588671314871411888e-03
7.595999999999999974e-02 7.200836722020332559e+01 3.371250777904805096e-01 8.170805199905813859e-03
7.685877551020407761e-02 7.286441680245728492e+01 3.442065295441757988e-01 8.373676139205378163e-03
7.775755102040816935e-02 7.372055021690766807e+01 3.514632782082102169e-01 8.578693371195019249e-03
7.865632653061224722e-02 7.457676853164147701e+01 3.588972050090208921e-01 8.785857048045360440e-03
7.955510204081632508e-02 7.543307281183970758e+01 3.665101924845664549e-01 8.995167321927037204e-03
8.045387755102040295e-02 7.628946411989093690e+01 3.743041244967211800e-01 9.206624345010678070e-03
8.135265306122449469e-02 7.714594351549952478e+01 3.822808862436834487e-01 9.420228269466918505e-03
8.225142857142857256e-02 7.800251205578958036e+01 3.904423642723973131e-01 9.635979247466380099e-03
8.315020408163265042e-02 7.885917079540421071e+01 3.987904464909888258e-01 9.853877431179696583e-03
8.404897959183672829e-02 7.971592078660104619e+01 4.073270221812149150e-01 1.007392297277750343e-02
8.494775510204082003e-02 8.057276307934318993e+01 4.160539820109261377e-01 1.029611602443043089e-02
8.584653061224489790e-02 8.142969872138689880e+01 4.249732180465423670e-01 1.052045673830909710e-02
8.674530612244897576e-02 8.228672875836578271e+01 4.340866237655431337e-01 1.074694526658414445e-02
8.764408163265305363e-02 8.314385423387133756e+01 4.433960940689700148e-01 1.097558176142619975e-02
8.854285714285714537e-02 8.400107618953028066e+01 4.529035252939431766e-01 1.120636637500589845e-02
8.944163265306122323e-02 8.485839566507931409e+01 4.626108152261905193e-01 1.143929925949386389e-02
9.034040816326530110e-02 8.571581369843660525e+01 4.725198631125915316e-01 1.167438056706072806e-02
9.123918367346939284e-02 8.657333132577058166e+01 4.826325696737334137e-01 1.191161044987712296e-02
9.213795918367347071e-02 8.743094958156640928e+01 4.929508371164803004e-01 1.215098906011367885e-02
9.303673469387754857e-02 8.828866949868961456e+01 5.034765691465575843e-01 1.239251654994102600e-02
9.393551020408162644e-02 8.914649210844764582e+01 5.142116709811480613e-01 1.263619307152979467e-02
9.483428571428570431e-02 9.000441844064926045e+01 5.251580493615023437e-01 1.288201877705061511e-02
9.573306122448979605e-02 9.086244952366141092e+01 5.363176125655628734e-01 1.312999381867412108e-02
9.663183673469387391e-02 9.172058638446453926e+01 5.476922704206008685e-01 1.338011834857093935e-02
9.753061224489795178e-02 9.257883004870542720e+01 5.592839343158684251e-01 1.363239251891169845e-02
9.842938775510204352e-02 9.343718154074913684e+01 5.710945172152627203e-01 1.388681648186703560e-02
9.932816326530612139e-02 9.429564188372775391e+01 5.831259336700045370e-01 1.414339038960757584e-02
1.002269387755101993e-01 9.515421209958894622e+01 5.953800998313316661e-01 1.440211439430395118e-02
1.011257142857142910e-01 9.601289320914195002e+01 6.078589334632050756e-01 1.466298864812679362e-02
1.020244897959183689e-01 9.687168623210222052e+01 6.205643539550286247e-01 1.492601330324672820e-02
1.029232653061224467e-01 9.773059218713500229e+01 6.334982823343850988e-01 1.519118851183438867e-02
1.038220408163265246e-01 9.858961209189692454e+01 6.466626412797844559e-01 1.545851442606040876e-02
1.047208163265306025e-01 9.944874696307681461e+01 6.600593551334266174e-01 1.572799119809541527e-02
1.056195918367346942e-01 1.003079978164345789e+02 6.736903499139795803e-01 1.599961898011004191e-02
1.065183673469387721e-01 1.011673656668397427e+02 6.875575533293705188e-01 1.627339792427491549e-02
1.074171428571428499e-01 1.020268515283077022e+02 7.016628947895933166e-01 1.654932818276066975e-02
1.083159183673469417e-01 1.028864564140359903e+02 7.160083054195289787e-01 1.682740990773793147e-02
1.092146938775510195e-01 1.037461813364387950e+02 7.305957180717811417e-01 1.710764325137733438e-02
1.101134693877550974e-01 1.046060273071800708e+02 7.454270673395275715e-01 1.739002836584950529e-02
1.110122448979591891e-01 1.054659953372071470e+02 7.605042895693856497e-01 1.767456540332507792e-02
1.119110204081632531e-01 1.063260864367813099e+02 7.758293228742915160e-01 1.796125451597467906e-02
1.128097959183673449e-01 1.071863016155094783e+02 7.914041071463987498e-01 1.825009585596894593e-02
1.137085714285714227e-01 1.080466418823733505e+02 8.072305840699857127e-01 1.854108957547850531e-02
1.146073469387755006e-01 1.089071082457588915e+02 8.233106971343846503e-01 1.883423582667398399e-02
1.155061224489795924e-01 1.097677017134845983e+02 8.396463916469222299e-01 1.912953476172601919e-02
1.164048979591836702e-01 1.106284232928285860e+02 8.562396147458765094e-01 1.942698653280523768e-02
1.173036734693877481e-01 1.114892739905555459e+02 8.730923154134507813e-01 1.972659129208227322e-02
1.182024489795918398e-01 1.123502548129425378e+02 8.902064444887618500e-01 2.002834919172774911e-02
1.191012244897959177e-01 1.132113667658046268e+02 9.075839546808436298e-01 2.033226038391230256e-02
1.199999999999999956e-01 1.140726108545191835e+02 9.252268005816691732e-01 2.063832502080655690e-02
1.213426926644584208e-01 1.153594834553690021e+02 9.520834498794376044e-01 2.110103561306468992e-02
1.226853853289168461e-01 1.166466565968410833e+02 9.795495483584958363e-01 2.157553506162056961e-02
1.240280779933752714e-01 1.179341337452986380e+02 1.007640787043955211e+00 2.206206544277683479e-02
1.253707706578336967e-01 1.192219184637081497e+02 1.036373188235933496e+00 2.256087118840361880e-02
1.267134633222921081e-01 1.205100144121044963e+02 1.065763109291693045e+00 2.307219907332825823e-02
1.280561559867505472e-01 1.217984253480747725e+02 1.095827246417228062e+00 2.359629820221205085e-02
1.293988486512089586e-01 1.230871551272628608e+02 1.126582638468348163e+00 2.413341999592407555e-02
1.307415413156673978e-01 1.243762077038916658e+02 1.158046670761357033e+00 2.468381817742038367e-02
1.320842339801258092e-01 1.256655871313039370e+02 1.190237078893414457e+00 2.524774875713559422e-02
1.334269266445842483e-01 1.269552975625194051e+02 1.223171952572729371e+00 2.582547001789291252e-02
1.347696193090426597e-01 1.282453432508075934e+02 1.256869739458712498e+00 2.641724249933562196e-02
1.361123119735010989e-01 1.295357285502779519e+02 1.291349249012272882e+00 2.702332898188443064e-02
1.374550046379595103e-01 1.308264579164823260e+02 1.326629656356423270e+00 2.764399447022096792e-02
1.387976973024179217e-01 1.321175359070334423e+02 1.362730506147408427e+00 2.827950617629899216e-02
1.401403899668763608e-01 1.334089671822364096e+02 1.399671716456554416e+00 2.893013350188290700e-02
1.414830826313348000e-01 1.347007565057328407e+02 1.437473582663067573e+00 2.959614802061121333e-02
1.428257752957932114e-01 1.359929087451578766e+02 1.476156781358022307e+00 3.027782345958477880e-02
1.441684679602516228e-01 1.372854288728096890e+02 1.515742374259780201e+00 3.097543568047477977e-02
1.455111606247100620e-01 1.385783219663298667e+02 1.556251812141091539e+00 3.168926266014795989e-02
1.468538532891684734e-01 1.398715932093948311e+02 1.597706938768145291e+00 3.241958447080401512e-02
1.481965459536269125e-01 1.411652478924191882e+02 1.640129994851847517e+00 3.316668325962065372e-02
1.495392386180853239e-01 1.424592914132683177e+02 1.683543622011584695e+00 3.393084322789988172e-02
1.508819312825437631e-01 1.437537292779811082e+02 1.727970866751780799e+00 3.471235060970984110e-02
1.522246239470021745e-01 1.450485671015030675e+02 1.773435184451510382e+00 3.551149365001475544e-02
1.535673166114606136e-01 1.463438106084282424e+02 1.819960443367486080e+00 3.632856258228644303e-02
1.549100092759190250e-01 1.476394656337505467e+02 1.867570928650690298e+00 3.716384960558876543e-02
1.562527019403774642e-01 1.489355381236238429e+02 1.916291346376980398e+00 3.801764886112762171e-02
1.575953946048358756e-01 1.502320341361303235e+02 1.966146827591935597e+00 3.889025640825697488e-02
1.589380872692943147e-01 1.515289598420575885e+02 2.017162932370285322e+00 3.978197019993316014e-02
1.602807799337527261e-01 1.528263215256833973e+02 2.069365653890189449e+00 4.069309005760689268e-02
1.616234725982111375e-01 1.541241255855692884e+02 2.122781422522709072e+00 4.162391764554429496e-02
1.629661652626695767e-01 1.554223785353603375e+02 2.177437109936747550e+00 4.257475644456678449e-02
1.643088579271280159e-01 1.567210870045939828e+02 2.233360033219782714e+00 4.354591172519922671e-02
1.656515505915864273e-01 1.580202577395146477e+02 2.290577959014696408e+00 4.453769052021709640e-02
1.669942432560448387e-01 1.593198976038970613e+02 2.349119107673002915e+00 4.555040159658056698e-02
1.683369359205032778e-01 1.606200135798755468e+02 2.409012157424777811e+00 4.658435542674611851e-02
1.696796285849616892e-01 1.619206127687802450e+02 2.470286248565589204e+00 4.763986415934359786e-02
1.710223212494201284e-01 1.632217023919806422e+02 2.532970987660746687e+00 4.871724158920862080e-02
1.723650139138785398e-01 1.645232897917349248e+02 2.597096451767134884e+00 4.981680312675802053e-02
1.737077065783369789e-01 1.658253824320465242e+02 2.662693192672963782e+00 5.093886576669794802e-02
1.750503992427953903e-01 1.671279878995265733e+02 2.729792241155687194e+00 5.208374805605236330e-02
1.763930919072538295e-01 1.684311139042628440e+02 2.798425111258419751e+00 5.325177006150089848e-02
1.777357845717122409e-01 1.697347682806943112e+02 2.868623804585091808e+00 5.444325333601431754e-02
1.790784772361706523e-01 1.710389589884929933e+02 2.940420814614666423e+00 5.565852088477558218e-02
1.804211699006290914e-01 1.723436941134505105e+02 3.013849131034660012e+00 5.689789713037559510e-02
1.817638625650875306e-01 1.736489818683709245e+02 3.088942244094248668e+00 5.816170787727064501e-02
1.831065552295459420e-01 1.749548305939701152e+02 3.165734148977235041e+00 5.945028027549153354e-02
1.844492478940043534e-01 1.762612487597799600e+02 3.244259350195130231e+00 6.076394278359092960e-02
1.857919405584627925e-01 1.775682449650589376e+02 3.324552866000594964e+00 6.210302513081851494e-02
2.636329213633921142e-01 2.549112787415044181e+02 1.224566266820249183e+01 1.665223441236106661e-01
3.414739021683214637e-01 3.360633183496319702e+02 3.012172451265344009e+01 2.709416631164028866e-01
4.193148829732508132e-01 4.223391522229632074e+02 5.817135406036763356e+01 3.753609821091950516e-01
4.971558637781801071e-01 5.148109948255184918e+02 9.792727263975379515e+01 4.797803011019871611e-01
5.749968445831095121e-01 6.144739933881542129e+02 1.512200095200007581e+02 5.841996200947795481e-01
6.528378253880388060e-01 7.222338728744755372e+02 2.163397493854720892e+02 6.226680845681449306e-01
7.306788061929682110e-01 8.381681636176931534e+02 2.847415851656021459e+02 5.610848066915442578e-01
8.085197869978975049e-01 9.612346700206823016e+02 3.498262705214493735e+02 4.995015288149437516e-01
8.863607678028267989e-01 1.090355510172357981e+03 4.102052656364753602e+02 4.379182509383432453e-01
9.642017486077562038e-01 1.224530924841137903e+03 4.647211689626573730e+02 3.763349730617426281e-01
1.042042729412685498e+00 1.362838201490231313e+03 5.124282118281937528e+02 3.147516951851421219e-01
1.119883710217614681e+00 1.504567818863253251e+03 5.579513455087686680e+02 3.275271556262303041e-01
1.197724691022544086e+00 1.649655238764825981e+03 6.107560579529197184e+02 3.992665699972726134e-01
1.275565671827473491e+00 1.798545495125084017e+03 6.756410901509501628e+02 4.710059843683149783e-01
1.353406652632402674e+00 1.951767312545755885e+03 7.534213232248024497e+02 5.427453987393571211e-01
1.431247633437332079e+00 2.109838290284923914e+03 8.450192677368626164e+02 6.144848131103993749e-01
1.509088614242261484e+00 2.273272628375172189e+03 9.514668877495105335e+02 6.862242274814416287e-01
1.586929595047190666e+00 2.442587390827588933e+03 1.073909149154076658e+03 7.579636418524837715e-01
1.664770575852120071e+00 2.618307744014890432e+03 1.213609007936777743e+03 8.297030562235261364e-01
1.742611556657049476e+00 2.800960613153985378e+03 1.368116182820089762e+03 8.610621486906894217e-01
1.820452537461978659e+00 2.990749729840657892e+03 1.526819914889860001e+03 8.130389857131753439e-01
1.898293518266908064e+00 3.187247656201536756e+03 1.681716063884495725e+03 7.650158227356611551e-01
1.976134499071837469e+00 3.390002288695971401e+03 1.831825210451136400e+03 7.169926597581470773e-01
2.053975479876766652e+00 3.597989679520867412e+03 1.924865893509286707e+03 1.844342627439753968e-01
