# density  energy_density  pressure   sound_speed_squared  [All in nuclear units]
2.720000000000000022e-14 2.529924618736292620e-11 1.061056609100270887e-19 3.766610435412189122e-08
1.269999999999999890e-13 1.181251617980081254e-10 4.870113551826584858e-18 6.497781477172163475e-08
6.929999999999999754e-13 6.445728594625782745e-10 1.018299070687946017e-16 3.033770597342807186e-07
6.295000000000000137e-12 5.855111460395753757e-09 5.487150723824490656e-15 1.763710043904196507e-06
1.581000000000000150e-11 1.470523320212576141e-08 2.904239460150760759e-14 3.559434472327477622e-06
3.971999999999999958e-11 3.694456170323160790e-08 1.439340266754906811e-13 6.772854871245677111e-06
9.975999999999999982e-11 9.278976412613005154e-08 6.812143616221268841e-13 1.246890511177539320e-05
2.505999999999999928e-10 2.330928829758143313e-07 3.107749196951638608e-12 2.212095130576091967e-05
6.294000000000000186e-10 5.854398883216247602e-07 1.363250409771533549e-11 3.761981047239428883e-05
1.581000000000000021e-09 1.470619631082054101e-06 5.726014178088476303e-11 6.095350986710739404e-05
3.971999999999999932e-09 3.694861084648016046e-06 2.210019573374265380e-10 8.628023653304385055e-05
5.000000000000000105e-09 4.651201787816927976e-06 3.071485916280120014e-10 9.387863480799757518e-05
9.975999999999999465e-09 9.280587964640925786e-06 8.385361004129998845e-10 1.356922228656245837e-04
1.989999999999999952e-08 1.851419242998081003e-05 2.287763168863418088e-09 1.782101978513718314e-04
3.972999999999999908e-08 3.696699295748789187e-05 6.061583099087538954e-09 2.308134738384234820e-04
7.925999999999999637e-08 7.375765469301719828e-05 1.575347858094044765e-08 2.960532096713864875e-04
1.580999999999999930e-07 1.471491184379128891e-04 3.910429618672550719e-08 3.402859755131850544e-04
1.991000000000000027e-07 1.853209783927820692e-04 5.252045687899177454e-08 3.626488188833278743e-04
3.155999999999999938e-07 2.938002528823880299e-04 9.730770378831954314e-08 4.630767356912104081e-04
5.000999999999999849e-07 4.656344063839075714e-04 1.837494945860225819e-07 5.430301232045120323e-04
6.295999999999999732e-07 5.862651417037388971e-04 2.503103884558263872e-07 5.605192962670089638e-04
9.666999999999999941e-07 9.003386739730535665e-04 4.324450868778576936e-07 5.993081670211623108e-04
1.531999999999999901e-06 1.427170885631398036e-03 7.780217275717420968e-07 7.125938556504039095e-04
2.506999999999999883e-06 2.336134972129507662e-03 1.471005394641589826e-06 8.121876172121876309e-04
3.974000000000000407e-06 3.704315759716615697e-03 2.695705763844323844e-06 9.780674166779417152e-04
4.830000000000000343e-06 4.502887798316278223e-03 3.503988717694660908e-06 1.046253037768318664e-03
6.080999999999999885e-06 5.670217999231269741e-03 4.731126407333307547e-06 1.056224360839501646e-03
7.930000000000000308e-06 7.396012414119570652e-03 6.599662989063778187e-06 1.109203753630785610e-03
9.982000000000000313e-06 9.311815711689977113e-03 8.879881089227186733e-06 1.271216815433141075e-03
1.256999999999999993e-05 1.172874412604260098e-02 1.207676739913533738e-05 1.374195438212825332e-03
1.521999999999999997e-05 1.420427250933824909e-02 1.547541302213394990e-05 1.371610497379100249e-03
1.991000000000000080e-05 1.858690797761085312e-02 2.160710455847765458e-05 1.426578142835871997e-03
2.506999999999999883e-05 2.341050104039446925e-02 2.908031724375689851e-05 1.672007475975408053e-03
2.790999999999999875e-05 2.606604784714952258e-02 3.357009132255487721e-05 1.709425557744154774e-03
3.806999999999999973e-05 3.556967988784798945e-02 4.986781576435106434e-05 1.720407281314112165e-03
5.063000000000000145e-05 4.732434580343149871e-02 7.073400252905581275e-05 1.829889149838781265e-03
6.592000000000000583e-05 6.164112392498975052e-02 9.765037643900635188e-05 1.930242980462695823e-03
8.433000000000000066e-05 7.888776783401378612e-02 1.317235490470395893e-04 2.021055815200022837e-03
1.062000000000000064e-04 9.938561165478684845e-02 1.740088341640037047e-04 2.104789529260958983e-03
1.321000000000000126e-04 1.236720406455826121e-01 2.260189757651373944e-04 2.178291718403657477e-03
1.623999999999999901e-04 1.520974545104751274e-01 2.888169908545388338e-04 2.240170365918073281e-03
1.689999999999999879e-04 1.582907717069566844e-01 3.027354772999506964e-04 2.254509350360745651e-03
1.758999999999999930e-04 1.647661861691531171e-01 3.173785841705756782e-04 2.268169273277113179e-03
1.830000000000000029e-04 1.714298948183871907e-01 3.325196584577469103e-04 2.276170334580628063e-03
1.901999999999999882e-04 1.781880600978280049e-01 3.479577791899843742e-04 2.292561569242367037e-03
1.977000000000000079e-04 1.852284385240466902e-01 3.641242634600037713e-04 2.299943765467868384e-03
2.054000000000000053e-04 1.924572004474696396e-01 3.808304060475003897e-04 2.322187632288155723e-03
2.079000000000000119e-04 1.948043378760714872e-01 3.864137987380476553e-04 2.435429768083530178e-03
2.081999999999999921e-04 1.950859988578999005e-01 3.870314100985603909e-04 1.950065624557156818e-03
2.090999999999999868e-04 1.959309855029948977e-01 3.881261957135444685e-04 6.411875526909013856e-04
2.159999999999999919e-04 2.024093317906446865e-01 3.940874488768042125e-04 1.199166870571831411e-03
2.231000000000000019e-04 2.090756740932291913e-01 4.013938420547467825e-04 9.928616047829054436e-04
2.311000000000000066e-04 2.165873044433437034e-01 4.085241694843774404e-04 9.056166966301716637e-04
2.401000000000000085e-04 2.250381721984245909e-01 4.159700687886608468e-04 8.565463878902855599e-04
2.500000000000000052e-04 2.343344406330727658e-01 4.237602369176299592e-04 8.194318812157330018e-04
2.642999999999999733e-04 2.477629128650125634e-01 4.345596643180389446e-04 7.890063723638815647e-04
3.052999999999999941e-04 2.862671839140227270e-01 4.644058706720978241e-04 7.612775562167708662e-04
3.533000000000000224e-04 3.313503829113090826e-01 4.987577676308450197e-04 7.626578558207241024e-04
4.075999999999999871e-04 3.823564017794535141e-01 5.381334366106255759e-04 7.813048116943254948e-04
4.679999999999999915e-04 4.390986251953180042e-01 5.832692638200615834e-04 8.096035963157804938e-04
5.341000000000000261e-04 5.012024644415256081e-01 6.346556894078133086e-04 8.452514814113673558e-04
6.059000000000000366e-04 5.686690698184251325e-01 6.930641302632923034e-04 8.862253587289389486e-04
7.661000000000000275e-04 7.192254882508629654e-01 8.328184776562496576e-04 9.702780530519144065e-04
1.262000000000000101e-03 1.185459127778160093e+00 1.338484980802662205e-03 1.198863597978450275e-03
1.894999999999999983e-03 1.780909071169781921e+00 2.123481960401060308e-03 1.437771491635827115e-03
2.673000000000000029e-03 2.513147344746868850e+00 3.261860252001994032e-03 1.671524566936786766e-03
3.605999999999999830e-03 3.391736073717691369e+00 4.828136641022434151e-03 1.893900408978071038e-03
4.709999999999999777e-03 4.431905410739045870e+00 6.903512974832482635e-03 2.096551352830673849e-03
7.496000000000000059e-03 7.058993649504918366e+00 1.289742191321638018e-02 2.466596387205546859e-03
1.119999999999999989e-02 1.055540362104863661e+01 2.212077014004794340e-02 2.809304433764861584e-03
1.600000000000000033e-02 1.509117352747679952e+01 3.559566804390756900e-02 3.132325055719984222e-03
2.206999999999999934e-02 2.083310616724802244e+01 5.457322122755020599e-02 3.477840948757840792e-03
2.947999999999999926e-02 2.785007348564149154e+01 8.049103664263126956e-02 3.909302116317729670e-03
4.268000000000000266e-02 4.036707211535221518e+01 1.353887601042819133e-01 4.862066536253286525e-03
6.219999999999999835e-02 5.891246509830522626e+01 2.419691225623893105e-01 6.630786177272363080e-03
7.316999999999999893e-02 6.935151695866235855e+01 3.161896974764099033e-01 7.588671314871411888e-03
7.595999999999999974e-02 7.200836722020332559e+01 3.371250777904805096e-01 8.170805199905812125e-03
7.685877551020407761e-02 7.286441677198234856e+01 3.442013142743159393e-01 8.361492825830884462e-03
7.775755102040816935e-02 7.372055001453513512e+01 3.514390060668124427e-01 8.546362634117199777e-03
7.865632653061224722e-02 7.457676781908472208e+01 3.588333462134196128e-01 8.725730906968381592e-03
7.955510204081632508e-02 7.543307098354335949e+01 3.663797969879152294e-01 8.899913926588093327e-03
8.045387755102040295e-02 7.628946023803956678e+01 3.740740899712250989e-01 9.069227975179970647e-03
8.135265306122449469e-02 7.714593625019956846e+01 3.819122261388242512e-01 9.233989334947664829e-03
8.225142857142857256e-02 7.800249963019602717e+01 3.898904759557763056e-01 9.394514288094816742e-03
8.315020408163265042e-02 7.885915093557706257e+01 3.980053794785610166e-01 9.551119116825072461e-03
8.404897959183672829e-02 7.971589067588773503e+01 4.062537464629174533e-01 9.704120103342076323e-03
8.494775510204082003e-02 8.057271931709520629e+01 4.146326564770120848e-01 9.853833529849477871e-03
8.584653061224489790e-02 8.142963728582742533e+01 4.231394590193093275e-01 1.000057567855091624e-02
8.674530612244897576e-02 8.228664497343565642e+01 4.317717736405915496e-01 1.014466283165003750e-02
8.764408163265305363e-02 8.314374273989031394e+01 4.405274900696342644e-01 1.028641127135049120e-02
8.854285714285714537e-02 8.400093091751759289e+01 4.494047683421044104e-01 1.042613727985591994e-02
8.944163265306122323e-02 8.485820981458623180e+01 4.584020389323005262e-01 1.056415713936996806e-02
9.034040816326530110e-02 8.571557971875121495e+01 4.675180028874080795e-01 1.070078713209627989e-02
9.123918367346939284e-02 8.657304090036174671e+01 4.767516319639861777e-01 1.083634354023850152e-02
9.213795918367347071e-02 8.743059361564031917e+01 4.861021687664504043e-01 1.097114264600028075e-02
9.303673469387754857e-02 8.828823810973904074e+01 4.955691268873578803e-01 1.110550073158525844e-02
9.393551020408162644e-02 8.914597461967910874e+01 5.051522910493367879e-01 1.123973407919708414e-02
9.483428571428570431e-02 9.000380337717938062e+01 5.148517172485431725e-01 1.137415897103939699e-02
9.573306122448979605e-02 9.086172461137877576e+01 5.246677328995605905e-01 1.150909168931585000e-02
9.663183673469387391e-02 9.171973855145799348e+01 5.346009369816900891e-01 1.164484851623007883e-02
9.753061224489795178e-02 9.257784542916520820e+01 5.446522001866116458e-01 1.178174573398573649e-02
9.842938775510204352e-02 9.343604548124945097e+01 5.548226650674222826e-01 1.192009962478646906e-02
9.932816326530612139e-02 9.429433895180723368e+01 5.651137461890873848e-01 1.206022647083591047e-02
1.002269387755101993e-01 9.515272609454478925e+01 5.755271302803670608e-01 1.220244255433771893e-02
1.011257142857142910e-01 9.601120717496131363e+01 5.860647763872994798e-01 1.234706415749553532e-02
1.020244897959183689e-01 9.686978247245539819e+01 5.967289160283510974e-01 1.249440756251300050e-02
1.029232653061224467e-01 9.772845228235898674e+01 6.075220533513633336e-01 1.264478905159376054e-02
1.038220408163265246e-01 9.858721691790108821e+01 6.184469652924433625e-01 1.279852490694146673e-02
1.047208163265306025e-01 9.944607671210557953e+01 6.295067017369702089e-01 1.295593141075975473e-02
1.056195918367346942e-01 1.003050320196249174e+02 6.407045856829025610e-01 1.311732484525227754e-02
1.065183673469387721e-01 1.011640832185127010e+02 6.520442134065916884e-01 1.328302149262268125e-02
1.074171428571428499e-01 1.020232307119377424e+02 6.635294546313241781e-01 1.345333763507460499e-02
1.083159183673469417e-01 1.028824749298428571e+02 6.751644526988268558e-01 1.362858955481169483e-02
1.092146938775510195e-01 1.037418163305491277e+02 6.869536247439870236e-01 1.380909353403759858e-02
1.101134693877550974e-01 1.046012554023094765e+02 6.989016618730559127e-01 1.399516585495596058e-02
1.110122448979591891e-01 1.054607926648125726e+02 7.110135293456099070e-01 1.418712279977042690e-02
1.119110204081632531e-01 1.063204286706399273e+02 7.232944667605634148e-01 1.438528065068463840e-02
1.128097959183673449e-01 1.071801640066770318e+02 7.357499882465392549e-01 1.458995568990224811e-02
1.137085714285714227e-01 1.080399992954819339e+02 7.483858826569050882e-01 1.480146419962688996e-02
1.146073469387755006e-01 1.088999351966111959e+02 7.612082137698105155e-01 1.502012246206221868e-02
1.155061224489795924e-01 1.097599724079068011e+02 7.742233204935551338e-01 1.524624675941187862e-02
1.164048979591836702e-01 1.106201116667435116e+02 7.874378170776360486e-01 1.548015337387950718e-02
1.173036734693877481e-01 1.114803537512403722e+02 8.008585933298332238e-01 1.572215858766875737e-02
1.182024489795918398e-01 1.123406994814362321e+02 8.144928148396947121e-01 1.597257868298327527e-02
1.191012244897959177e-01 1.132011497204311610e+02 8.283479232087972433e-01 1.623172994202670000e-02
1.199999999999999956e-01 1.140617053754957340e+02 8.424316362881666409e-01 1.649992864700267417e-02
1.224431192551427849e-01 1.164014755607065439e+02 8.819346832619778809e-01 1.726656228775387200e-02
1.248862385102855604e-01 1.187420521904690958e+02 9.232737157775127157e-01 1.805711946201955104e-02
1.273293577654283359e-01 1.210834559717671368e+02 9.665068176822383395e-01 1.887196849185913614e-02
1.297724770205711253e-01 1.234257079409716766e+02 1.011693070805112171e+00 1.971149411203832955e-02
1.322155962757139147e-01 1.257688294644294871e+02 1.058892598352185965e+00 2.057609704335459921e-02
1.346587155308567041e-01 1.281128422398041948e+02 1.108166607518202618e+00 2.146619353562955954e-02
1.371018347859994657e-01 1.304577682980840905e+02 1.159577431252198254e+00 2.238221488144118143e-02
1.395449540411422551e-01 1.328036300061848465e+02 1.213188569117394033e+00 2.332460690158115121e-02
1.419880732962850445e-01 1.351504500700756353e+02 1.269064727187682040e+00 2.429382940314330983e-02
1.444311925514278339e-01 1.374982515383687200e+02 1.327271856924879367e+00 2.529035561108536334e-02
1.468743118065706232e-01 1.398470578063146661e+02 1.387877192982585051e+00 2.631467157404804996e-02
1.493174310617133849e-01 1.421968926201508907e+02 1.450949289884017945e+00 2.736727554517132122e-02
1.517605503168561742e-01 1.445477800817571961e+02 1.516558057522628733e+00 2.844867733860738379e-02
1.542036695719989636e-01 1.468997446535714175e+02 1.584774795435564210e+00 2.955939766239991384e-02
1.566467888271417530e-01 1.492528111637287225e+02 1.655672225801298802e+00 3.069996742837569070e-02
1.590899080822845146e-01 1.516070048113828648e+02 1.729324525113861144e+00 3.187092703967674828e-02
1.615330273374273040e-01 1.539623511721777049e+02 1.805807354487176219e+00 3.307282565655138284e-02
1.639761465925700934e-01 1.563188762038344919e+02 1.885197888544048350e+00 3.430622044101647172e-02
1.664192658477128828e-01 1.586766062518265699e+02 1.967574842845329020e+00 3.557167578100522976e-02
1.688623851028556722e-01 1.610355680551120656e+02 2.053018499815755238e+00 3.686976249462030342e-02
1.713055043579984615e-01 1.633957887518986638e+02 2.141610733123913590e+00 3.820105701512429425e-02
1.737486236131412232e-01 1.657572958854163403e+02 2.233435030474739680e+00 3.956614055731662999e-02
1.761917428682840125e-01 1.681201174096747764e+02 2.328576514773933681e+00 4.096559826596900267e-02
1.786348621234268019e-01 1.704842816951820055e+02 2.427121963624649936e+00 4.240001834701791900e-02
1.810779813785695636e-01 1.728498175346066432e+02 2.529159827117881232e+00 4.386999118224843563e-02
1.835211006337123529e-01 1.752167541483630941e+02 2.634780243879005557e+00 4.537610842823942836e-02
1.859642198888551423e-01 1.775851211900989881e+02 2.744075055334106228e+00 4.691896210038735970e-02
1.884073391439979317e-01 1.799549487520728519e+02 2.857137818160918830e+00 4.849914364287375573e-02
1.908504583991407211e-01 1.823262673703995063e+02 2.974063814890521851e+00 5.011724298549886936e-02
1.932935776542835105e-01 1.846991080301528143e+02 3.094950062627324527e+00 5.177384758836503509e-02
1.957366969094262721e-01 1.870735021703075063e+02 3.219895319856410865e+00 5.346954147546310182e-02
1.981798161645690615e-01 1.894494816885070634e+02 3.349000091308976135e+00 5.520490425828834119e-02
2.006229354197118508e-01 1.918270789456454963e+02 3.482366630858367174e+00 5.698051015069564157e-02
2.030660546748546125e-01 1.942063267702472444e+02 3.620098942421272170e+00 5.879692697629244208e-02
2.055091739299974019e-01 1.965872584626380046e+02 3.762302778840730610e+00 6.065471516976411737e-02
2.079522931851401912e-01 1.989699077988885563e+02 3.909085638730014356e+00 6.255442677363061421e-02
2.103954124402829806e-01 2.013543090345263806e+02 4.060556761259082492e+00 6.449660443204698057e-02
2.128385316954257700e-01 2.037404969080022852e+02 4.216827118868131663e+00 6.648178038338040108e-02
2.152816509505685594e-01 2.061285066439014599e+02 4.378009407895936178e+00 6.851047545342732470e-02
2.177247702057113210e-01 2.085183739558903255e+02 4.544218037114120534e+00 7.058319805127447055e-02
2.201678894608541104e-01 2.109101350493934888e+02 4.715569114162303954e+00 7.270044316995716294e-02
2.226110087159968998e-01 2.133038266239856569e+02 4.892180429883176807e+00 7.486269139422872809e-02
2.250541279711396614e-01 2.156994858754989366e+02 5.074171440561185520e+00 7.707040791792793555e-02
2.274972472262824508e-01 2.180971504978326720e+02 5.261663248073443100e+00 7.932404157361243324e-02
2.299403664814252402e-01 2.204968586844617562e+02 5.454778577966920672e+00 8.162402387732446696e-02
2.323834857365680295e-01 2.228986491296370218e+02 5.653641755482023967e+00 8.397076809156124588e-02
2.348266049917108189e-01 2.253025610292732495e+02 5.858378679549091750e+00 8.636466830974733055e-02
2.372697242468536083e-01 2.277086340815181700e+02 6.069116794791506564e+00 8.880609856573803973e-02
2.397128435019963699e-01 2.301169084870016093e+02 6.285985061576863764e+00 9.129541197214047221e-02
3.164533977162413692e-01 3.075154662473349845e+02 1.914345872788558722e+01 2.373985741713997011e-01
3.931939519304863406e-01 3.893812374334852962e+02 4.479508243469147288e+01 3.835017363706588744e-01
4.699345061447313121e-01 4.775354892314457516e+02 8.538595628992793252e+01 5.296048985699179923e-01
5.466750603589762836e-01 5.735336662184732859e+02 1.413658004105048747e+02 6.305149166565467977e-01
6.234156145732212551e-01 6.781663897254215954e+02 2.032118738298180460e+02 5.568607192023518060e-01
7.001561687874662265e-01 7.902091519774194239e+02 2.612641292477587740e+02 4.832065217481568142e-01
7.768967230017111980e-01 9.083328747181810741e+02 3.138293111232956676e+02 4.095523242939618225e-01
8.536372772159561695e-01 1.031321551121910488e+03 3.595503849195233101e+02 3.358981268397668862e-01
9.303778314302011410e-01 1.158070399194498350e+03 3.973729208653938940e+02 2.622439293855718945e-01
1.007118385644446112e+00 1.287581833983374963e+03 4.265115240073617997e+02 1.885897319313769027e-01
1.083858939858691084e+00 1.418960148524512533e+03 4.464174717363658829e+02 1.149355344771819665e-01
1.160599494072936055e+00 1.551405475049620691e+03 4.567482086637868406e+02 4.128133702298697472e-02
1.237340048287181027e+00 1.684733389785280906e+03 4.755126937196396284e+02 2.391969938447171540e-01
1.314080602501425998e+00 1.819972605752423078e+03 5.218023694326692521e+02 4.426245786762032508e-01
1.390821156715670970e+00 1.958670714638365098e+03 5.976303182195260888e+02 6.460521635076893476e-01
1.467561710929915941e+00 2.102311069797763139e+03 7.024632856492518158e+02 8.082490078165255332e-01
1.544302265144160913e+00 2.252043864038741049e+03 8.190526969178135914e+02 7.511707153493908384e-01
1.621042819358405884e+00 2.407464736780780186e+03 9.312233304882095126e+02 6.940924228822561437e-01
1.697783373572650856e+00 2.568070782453242828e+03 1.037990711754056292e+03 6.370141304151215600e-01
1.774523927786895827e+00 2.733362103025665419e+03 1.138458070731839598e+03 5.799358379479868653e-01
1.851264482001140799e+00 2.902845247191857197e+03 1.231817612330602969e+03 5.228575454808521705e-01
1.928005036215385770e+00 3.076036103092571466e+03 1.317350525123754778e+03 4.657792530137174758e-01
2.004745590429630742e+00 3.252419141737729660e+03 1.390819332721789578e+03 3.684393445678179058e-01
2.081486144643875491e+00 3.431268069140120588e+03 1.446226344960093684e+03 2.520650013362200625e-01
