# density  energy_density  pressure   sound_speed_squared  [All in nuclear units]
2.720000000000000022e-14 2.529924618736292620e-11 1.061056609100270887e-19 3.766610435412189122e-08
1.269999999999999890e-13 1.181251617980081254e-10 4.870113551826584858e-18 6.497781477172163475e-08
6.929999999999999754e-13 6.445728594625782745e-10 1.018299070687946017e-16 3.033770597342807186e-07
6.295000000000000137e-12 5.855111460395753757e-09 5.487150723824490656e-15 1.763710043904196507e-06
1.581000000000000150e-11 1.470523320212576141e-08 2.904239460150760759e-14 3.559434472327477622e-06
3.971999999999999958e-11 3.694456170323160790e-08 1.439340266754906811e-13 6.772854871245677111e-06
9.975999999999999982e-11 9.278976412613005154e-08 6.812143616221268841e-13 1.246890511177539320e-05
2.505999999999999928e-10 2.330928829758143313e-07 3.107749196951638608e-12 2.212095130576091967e-05
6.294000000000000186e-10 5.854398883216247602e-07 1.363250409771533549e-11 3.761981047239428883e-05
1.581000000000000021e-09 1.470619631082054101e-06 5.726014178088476303e-11 6.095350986710739404e-05
3.971999999999999932e-09 3.694861084648016046e-06 2.210019573374265380e-10 8.628023653304385055e-05
5.000000000000000105e-09 4.651201787816927976e-06 3.071485916280120014e-10 9.387863480799757518e-05
9.975999999999999465e-09 9.280587964640925786e-06 8.385361004129998845e-10 1.356922228656245837e-04
1.989999999999999952e-08 1.851419242998081003e-05 2.287763168863418088e-09 1.782101978513718314e-04
3.972999999999999908e-08 3.696699295748789187e-05 6.061583099087538954e-09 2.308134738384234820e-04
7.925999999999999637e-08 7.375765469301719828e-05 1.575347858094044765e-08 2.960532096713864875e-04
1.580999999999999930e-07 1.471491184379128891e-04 3.910429618672550719e-08 3.402859755131850544e-04
1.991000000000000027e-07 1.853209783927820692e-04 5.252045687899177454e-08 3.626488188833278743e-04
3.155999999999999938e-07 2.938002528823880299e-04 9.730770378831954314e-08 4.630767356912104081e-04
5.000999999999999849e-07 4.656344063839075714e-04 1.837494945860225819e-07 5.430301232045120323e-04
6.295999999999999732e-07 5.862651417037388971e-04 2.503103884558263872e-07 5.605192962670089638e-04
9.666999999999999941e-07 9.003386739730535665e-04 4.324450868778576936e-07 5.993081670211623108e-04
1.531999999999999901e-06 1.427170885631398036e-03 7.780217275717420968e-07 7.125938556504039095e-04
2.506999999999999883e-06 2.336134972129507662e-03 1.471005394641589826e-06 8.121876172121876309e-04
3.974000000000000407e-06 3.704315759716615697e-03 2.695705763844323844e-06 9.780674166779417152e-04
4.830000000000000343e-06 4.502887798316278223e-03 3.503988717694660908e-06 1.046253037768318664e-03
6.080999999999999885e-06 5.670217999231269741e-03 4.731126407333307547e-06 1.056224360839501646e-03
7.930000000000000308e-06 7.396012414119570652e-03 6.599662989063778187e-06 1.109203753630785610e-03
9.982000000000000313e-06 9.311815711689977113e-03 8.879881089227186733e-06 1.271216815433141075e-03
1.256999999999999993e-05 1.172874412604260098e-02 1.207676739913533738e-05 1.374195438212825332e-03
1.521999999999999997e-05 1.420427250933824909e-02 1.547541302213394990e-05 1.371610497379100249e-03
1.991000000000000080e-05 1.858690797761085312e-02 2.160710455847765458e-05 1.426578142835871997e-03
2.506999999999999883e-05 2.341050104039446925e-02 2.908031724375689851e-05 1.672007475975408053e-03
2.790999999999999875e-05 2.606604784714952258e-02 3.357009132255487721e-05 1.709425557744154774e-03
3.806999999999999973e-05 3.556967988784798945e-02 4.986781576435106434e-05 1.720407281314112165e-03
5.063000000000000145e-05 4.732434580343149871e-02 7.073400252905581275e-05 1.829889149838781265e-03
6.592000000000000583e-05 6.164112392498975052e-02 9.765037643900635188e-05 1.930242980462695823e-03
8.433000000000000066e-05 7.888776783401378612e-02 1.317235490470395893e-04 2.021055815200022837e-03
1.062000000000000064e-04 9.938561165478684845e-02 1.740088341640037047e-04 2.104789529260958983e-03
1.321000000000000126e-04 1.236720406455826121e-01 2.260189757651373944e-04 2.178291718403657477e-03
1.623999999999999901e-04 1.520974545104751274e-01 2.888169908545388338e-04 2.240170365918073281e-03
1.689999999999999879e-04 1.582907717069566844e-01 3.027354772999506964e-04 2.254509350360745651e-03
1.758999999999999930e-04 1.647661861691531171e-01 3.173785841705756782e-04 2.268169273277113179e-03
1.830000000000000029e-04 1.714298948183871907e-01 3.325196584577469103e-04 2.276170334580628063e-03
1.901999999999999882e-04 1.781880600978280049e-01 3.479577791899843742e-04 2.292561569242367037e-03
1.977000000000000079e-04 1.852284385240466902e-01 3.641242634600037713e-04 2.299943765467868384e-03
2.054000000000000053e-04 1.924572004474696396e-01 3.808304060475003897e-04 2.322187632288155723e-03
2.079000000000000119e-04 1.948043378760714872e-01 3.864137987380476553e-04 2.435429768083530178e-03
2.081999999999999921e-04 1.950859988578999005e-01 3.870314100985603909e-04 1.950065624557156818e-03
2.090999999999999868e-04 1.959309855029948977e-01 3.881261957135444685e-04 6.411875526909013856e-04
2.159999999999999919e-04 2.024093317906446865e-01 3.940874488768042125e-04 1.199166870571831411e-03
2.231000000000000019e-04 2.090756740932291913e-01 4.013938420547467825e-04 9.928616047829054436e-04
2.311000000000000066e-04 2.165873044433437034e-01 4.085241694843774404e-04 9.056166966301716637e-04
2.401000000000000085e-04 2.250381721984245909e-01 4.159700687886608468e-04 8.565463878902855599e-04
2.500000000000000052e-04 2.343344406330727658e-01 4.237602369176299592e-04 8.194318812157330018e-04
2.642999999999999733e-04 2.477629128650125634e-01 4.345596643180389446e-04 7.890063723638815647e-04
3.052999999999999941e-04 2.862671839140227270e-01 4.644058706720978241e-04 7.612775562167708662e-04
3.533000000000000224e-04 3.313503829113090826e-01 4.987577676308450197e-04 7.626578558207241024e-04
4.075999999999999871e-04 3.823564017794535141e-01 5.381334366106255759e-04 7.813048116943254948e-04
4.679999999999999915e-04 4.390986251953180042e-01 5.832692638200615834e-04 8.096035963157804938e-04
5.341000000000000261e-04 5.012024644415256081e-01 6.346556894078133086e-04 8.452514814113673558e-04
6.059000000000000366e-04 5.686690698184251325e-01 6.930641302632923034e-04 8.862253587289389486e-04
7.661000000000000275e-04 7.192254882508629654e-01 8.328184776562496576e-04 9.702780530519144065e-04
1.262000000000000101e-03 1.185459127778160093e+00 1.338484980802662205e-03 1.198863597978450275e-03
1.894999999999999983e-03 1.780909071169781921e+00 2.123481960401060308e-03 1.437771491635827115e-03
2.673000000000000029e-03 2.513147344746868850e+00 3.261860252001994032e-03 1.671524566936786766e-03
3.605999999999999830e-03 3.391736073717691369e+00 4.828136641022434151e-03 1.893900408978071038e-03
4.709999999999999777e-03 4.431905410739045870e+00 6.903512974832482635e-03 2.096551352830673849e-03
7.496000000000000059e-03 7.058993649504918366e+00 1.289742191321638018e-02 2.466596387205546859e-03
1.119999999999999989e-02 1.055540362104863661e+01 2.212077014004794340e-02 2.809304433764861584e-03
1.600000000000000033e-02 1.509117352747679952e+01 3.559566804390756900e-02 3.132325055719984222e-03
2.206999999999999934e-02 2.083310616724802244e+01 5.457322122755020599e-02 3.477840948757840792e-03
2.947999999999999926e-02 2.785007348564149154e+01 8.049103664263126956e-02 3.909302116317729670e-03
4.268000000000000266e-02 4.036707211535221518e+01 1.353887601042819133e-01 4.862066536253286525e-03
6.219999999999999835e-02 5.891246509830522626e+01 2.419691225623893105e-01 6.630786177272363080e-03
7.316999999999999893e-02 6.935151695866235855e+01 3.161896974764099033e-01 7.588671314871411888e-03
7.595999999999999974e-02 7.200836722020332559e+01 3.371250777904805096e-01 8.170805199905810390e-03
7.685877551020407761e-02 7.286441681726792297e+01 3.442090641539753415e-01 8.379597202354966898e-03
7.775755102040816935e-02 7.372055031525924562e+01 3.514750743937439248e-01 8.594405979114837224e-03
7.865632653061224722e-02 7.457676887793824960e+01 3.589282401117295795e-01 8.815077978208213372e-03
7.955510204081632508e-02 7.543307370037538817e+01 3.665735639780531296e-01 9.041459647657902957e-03
8.045387755102040295e-02 7.628946600643280362e+01 3.744159197244374959e-01 9.273397435486703186e-03
8.135265306122449469e-02 7.714594704635841538e+01 3.824600521356648630e-01 9.510737789717414736e-03
8.225142857142857256e-02 7.800251809448661788e+01 3.907105770388696886e-01 9.753327158372829611e-03
8.315020408163265042e-02 7.885918044703974772e+01 3.991719812904929165e-01 1.000101198947575022e-02
8.404897959183672829e-02 7.971593542002327126e+01 4.078486227607360792e-01 1.025363873104897725e-02
8.494775510204082003e-02 8.057278434721243343e+01 4.167447303153750671e-01 1.051105383111531136e-02
8.584653061224489790e-02 8.142972857822243782e+01 4.258644037948052796e-01 1.077310373769754109e-02
8.674530612244897576e-02 8.228676947666021135e+01 4.352116139902074687e-01 1.103963489881847407e-02
8.764408163265305363e-02 8.314390841835192703e+01 4.447902026167325773e-01 1.131049376250090922e-02
8.854285714285714537e-02 8.400114678964327197e+01 4.546038822836208082e-01 1.158552677676764377e-02
8.944163265306122323e-02 8.485848598576831137e+01 4.646562364611787066e-01 1.186458038964147317e-02
9.034040816326530110e-02 8.571592740928373644e+01 4.749507194445517499e-01 1.214750104914519985e-02
9.123918367346939284e-02 8.657347246856458867e+01 4.854906563142362130e-01 1.243413520330162621e-02
9.213795918367347071e-02 8.743112257635939955e+01 4.962792428932871758e-01 1.272432930013354252e-02
9.303673469387754857e-02 8.828887914840082374e+01 5.073195457011885345e-01 1.301792978766374773e-02
9.393551020408162644e-02 8.914674360206998927e+01 5.186145019043552074e-01 1.331478311391505118e-02
9.483428571428570431e-02 9.000471735511098359e+01 5.301669192632509908e-01 1.361473572691024141e-02
9.573306122448979605e-02 9.086280182439396924e+01 5.419794760761090791e-01 1.391763407467212776e-02
9.663183673469387391e-02 9.172099842472374576e+01 5.540547211192504706e-01 1.422332460522349705e-02
9.753061224489795178e-02 9.257930856769264949e+01 5.663950735840037609e-01 1.453165376658715341e-02
9.842938775510204352e-02 9.343773366057450858e+01 5.790028230102323148e-01 1.484246800678589925e-02
9.932816326530612139e-02 9.429627510525919831e+01 5.918801292164833638e-01 1.515561377384252659e-02
1.002269387755101993e-01 9.515493429722404528e+01 6.050290222267799001e-01 1.547093751577983782e-02
1.011257142857142910e-01 9.601371262454232181e+01 6.184514021940780149e-01 1.578828568062063537e-02
1.020244897959183689e-01 9.687261146692613067e+01 6.321490393204189928e-01 1.610750471638770775e-02
1.029232653061224467e-01 9.773163219480200326e+01 6.461235737738137974e-01 1.642844107110386434e-02
1.038220408163265246e-01 9.859077616841807412e+01 6.603765156018933657e-01 1.675094119279189886e-02
1.047208163265306025e-01 9.945004473698189429e+01 6.749092446423708980e-01 1.707485152947460505e-02
1.056195918367346942e-01 1.003094392378266662e+02 6.897230104303621046e-01 1.740001852917479747e-02
1.065183673469387721e-01 1.011689609956046922e+02 7.048189321026118170e-01 1.772628863991526291e-02
1.074171428571428499e-01 1.020286113215083930e+02 7.201979982986850271e-01 1.805350830971879511e-02
1.083159183673469417e-01 1.028883915125150423e+02 7.358610670591744229e-01 1.838152398660821557e-02
1.092146938775510195e-01 1.037483028506570406e+02 7.518088657209871517e-01 1.871018211860629721e-02
1.101134693877550974e-01 1.046083466023146542e+02 7.680419908097769754e-01 1.903932915373584764e-02
1.110122448979591891e-01 1.054685240175309247e+02 7.845609079295829957e-01 1.936881154001967101e-02
1.119110204081632531e-01 1.063288363293483485e+02 8.013659516497458890e-01 1.969847572548056105e-02
1.128097959183673449e-01 1.071892847531651682e+02 8.184573253891784805e-01 2.002816815814132193e-02
1.137085714285714227e-01 1.080498704861119990e+02 8.358351012980529404e-01 2.035773528602474389e-02
1.146073469387755006e-01 1.089105947064472275e+02 8.534992201369957510e-01 2.068702355715363456e-02
1.155061224489795924e-01 1.097714585729693368e+02 8.714494911538576138e-01 2.101587941955078767e-02
1.164048979591836702e-01 1.106324632244480028e+02 8.896855919581437844e-01 2.134414932123900391e-02
1.173036734693877481e-01 1.114936097790707805e+02 9.082070683931905419e-01 2.167167971024108047e-02
1.182024489795918398e-01 1.123548993339064594e+02 9.270133344061676217e-01 2.199831703457981805e-02
1.191012244897959177e-01 1.132163329643829144e+02 9.461036719159955366e-01 2.232390774227801383e-02
1.199999999999999956e-01 1.140779117237804456e+02 9.654772306792706038e-01 2.264829828135847198e-02
1.210194920511530881e-01 1.150553880829764068e+02 9.877956279127668715e-01 2.301701578855856745e-02
1.220389841023061667e-01 1.160330540100421928e+02 1.010483476137052694e+00 2.339522436177592091e-02
1.230584761534592592e-01 1.170109110474042353e+02 1.033550308655013295e+00 2.378307620228301347e-02
1.240779682046123378e-01 1.179889607915631018e+02 1.057005816301580303e+00 2.418072374998517585e-02
1.250974602557654303e-01 1.189672048930576835e+02 1.080859847968970167e+00 2.458831968081090155e-02
1.261169523069185228e-01 1.199456450564339178e+02 1.105122411137233307e+00 2.500601690370302457e-02
1.271364443580715875e-01 1.209242830402189242e+02 1.129803672409905868e+00 2.543396855721916441e-02
1.281559364092246800e-01 1.219031206569010379e+02 1.154913958054554879e+00 2.587232800574634436e-02
1.291754284603777725e-01 1.228821597729140365e+02 1.180463754548006339e+00 2.632124883533324550e-02
1.301949205115308650e-01 1.238614023086261398e+02 1.206463709126069928e+00 2.678088484914763895e-02
1.312144125626839575e-01 1.248408502383346956e+02 1.232924630337558281e+00 2.725139006256233412e-02
1.322339046138370222e-01 1.258205055902636786e+02 1.259857488602418529e+00 2.773291869787464226e-02
1.332533966649901147e-01 1.268003704465674133e+02 1.287273416773794921e+00 2.822562517866405302e-02
1.342728887161432072e-01 1.277804469433369690e+02 1.315183710703834441e+00 2.872966412379194742e-02
1.352923807672962997e-01 1.287607372706116564e+02 1.343599829813076685e+00 2.924519034104875945e-02
1.363118728184493644e-01 1.297412436723937219e+02 1.372533397663247667e+00 2.977235882045064716e-02
1.373313648696024569e-01 1.307219684466681429e+02 1.401996202533300817e+00 3.031132472719206064e-02
1.383508569207555494e-01 1.317029139454243420e+02 1.432000197998531732e+00 3.086224339425519200e-02
1.393703489719086419e-01 1.326840825746829466e+02 1.462557503512625701e+00 3.142527031468308335e-02
1.403898410230617344e-01 1.336654767945256594e+02 1.493680404992472788e+00 3.200056113351748555e-02
1.414093330742147991e-01 1.346470991191282849e+02 1.525381355405604378e+00 3.258827163940575949e-02
1.424288251253678916e-01 1.356289521167970520e+02 1.557672975360109735e+00 3.318855775588157309e-02
1.434483171765209841e-01 1.366110384100084616e+02 1.590568053696875372e+00 3.380157553232014667e-02
1.444678092276740489e-01 1.375933606754520895e+02 1.624079548084025992e+00 3.442748113457379938e-02
1.454873012788271414e-01 1.385759216440760042e+02 1.658220585613421560e+00 3.506643083528949989e-02
1.465067933299802339e-01 1.395587241011359936e+02 1.693004463399068626e+00 3.571858100391216845e-02
1.475262853811333263e-01 1.405417708862461268e+02 1.728444649177333314e+00 3.638408809637660307e-02
1.485457774322864188e-01 1.415250648934337221e+02 1.764554781908814540e+00 3.706310864449150616e-02
1.495652694834394836e-01 1.425086090711959343e+02 1.801348672381756444e+00 3.775579924501794998e-02
1.505847615345925761e-01 1.434924064225589575e+02 1.838840303816884347e+00 3.846231654844597253e-02
1.516042535857456686e-01 1.444764600051403249e+02 1.877043832473527685e+00 3.918281724747173234e-02
1.526237456368987611e-01 1.454607729312126878e+02 1.915973588256934645e+00 3.991745806517851131e-02
1.536432376880518258e-01 1.464453483677709755e+02 1.955644075326646636e+00 4.066639574292425785e-02
1.546627297392049183e-01 1.474301895366008353e+02 1.996069972705834195e+00 4.142978702793898710e-02
1.556822217903580108e-01 1.484152997143504251e+02 2.037266134891465796e+00 4.220778866063391865e-02
1.567017138415111033e-01 1.494006822326027191e+02 2.079247592465224947e+00 4.300055736162700787e-02
1.577212058926641958e-01 1.503863404779518191e+02 2.122029552705053224e+00 4.380824981848559230e-02
1.587406979438172883e-01 1.513722778920793246e+02 2.165627400197222219e+00 4.463102267219112851e-02
1.597601899949703530e-01 1.523584979718347086e+02 2.210056697448831819e+00 4.546903250332736540e-02
1.607796820461234455e-01 1.533450042693154955e+02 2.255333185500643101e+00 4.632243581799584675e-02
1.617991740972765380e-01 1.543318003919506225e+02 2.301472784540129268e+00 4.719138903346103975e-02
1.628186661484296027e-01 1.553188900025853627e+02 2.348491594514673597e+00 4.807604846352851041e-02
1.638381581995826952e-01 1.563062768195677847e+02 2.396405895744810444e+00 4.897657030365889369e-02
1.648576502507357877e-01 1.572939646168362913e+02 2.445232149537406752e+00 4.989311061582069051e-02
1.658771423018888802e-01 1.582819572240103980e+02 2.494986998798715661e+00 5.082582531308480617e-02
1.668966343530419727e-01 1.592702585264809159e+02 2.545687268647199630e+00 5.177487014396418841e-02
1.679161264041950374e-01 1.602588724655039414e+02 2.597349967026041373e+00 5.274040067650141023e-02
1.689356184553481299e-01 1.612478030382942507e+02 2.649992285315262652e+00 5.372257228210726432e-02
1.699551105065012224e-01 1.622370542981211941e+02 2.703631598943353254e+00 5.472154011915396354e-02
2.481192919247358908e-01 2.393938210118383267e+02 9.403997298974903885e+00 1.180136363910399555e-01
3.262834733429705869e-01 3.194324773464939540e+02 2.143127276695388872e+01 1.813057326629259891e-01
4.044476547612052553e-01 4.030048148628362696e+02 3.928759667981612580e+01 2.445978289348119672e-01
4.826118361794399236e-01 4.906112242600763125e+02 6.355861859338192232e+01 3.078899252066979453e-01
5.607760175976745920e-01 5.833875446816925887e+02 1.178227412708463078e+02 8.276552707740566506e-01
6.389401990159092604e-01 6.866750414120604091e+02 1.989693412645994499e+02 7.512999970444776965e-01
7.171043804341439287e-01 7.998879754476421340e+02 2.793687659240921448e+02 6.749447233148987424e-01
7.952685618523785971e-01 9.217260800821584326e+02 3.566748287605051360e+02 5.985894495853197883e-01
8.734327432706132655e-01 1.050930381021078347e+03 4.288601996355913002e+02 5.222341758557408342e-01
9.515969246888479338e-01 1.186300668714087124e+03 4.942133042099224554e+02 4.458789021261618801e-01
1.029761106107082602e+00 1.326706491062414898e+03 5.513255195661485004e+02 3.695236283965829260e-01
1.107925287525317160e+00 1.471093560432064351e+03 5.990724089430303820e+02 2.931683546670040830e-01
1.186089468943551939e+00 1.618486878271059595e+03 6.365915153259207955e+02 2.168130809374250179e-01
1.264253650361786496e+00 1.767991499496415827e+03 6.632584360025982733e+02 1.404578072078461748e-01
1.342417831780021054e+00 1.919099830400160954e+03 6.905553619284942215e+02 2.203402608143832930e-01
1.420582013198255833e+00 2.072248713761210638e+03 7.360443754524042106e+02 3.721022348945500213e-01
1.498746194616490612e+00 2.228515714162178483e+03 8.062495264450810737e+02 5.238642089747167496e-01
1.576910376034725170e+00 2.389065387562071464e+03 9.028278608673164172e+02 6.756261830548829783e-01
1.655074557452959727e+00 2.554995662873726360e+03 1.019784291930621521e+03 7.325252330543715606e-01
1.733238738871194506e+00 2.726745336925500851e+03 1.147422907914936332e+03 7.532757423864746560e-01
1.811402920289429286e+00 2.904430228075445484e+03 1.283159910621883000e+03 7.740262517185777513e-01
1.889567101707663843e+00 3.088150526108333906e+03 1.427320279775704876e+03 7.947767610506807356e-01
1.967731283125898400e+00 3.278011790728803135e+03 1.580239559368314076e+03 8.155272703827838310e-01
2.045895464544133180e+00 3.474124736127322649e+03 1.742264125330954812e+03 8.362777797148869263e-01
