# density  energy_density  pressure   sound_speed_squared  [All in nuclear units]
2.720000000000000022e-14 2.529924618736292620e-11 1.061056609100270887e-19 3.766610435412189122e-08
1.269999999999999890e-13 1.181251617980081254e-10 4.870113551826584858e-18 6.497781477172163475e-08
6.929999999999999754e-13 6.445728594625782745e-10 1.018299070687946017e-16 3.033770597342807186e-07
6.295000000000000137e-12 5.855111460395753757e-09 5.487150723824490656e-15 1.763710043904196507e-06
1.581000000000000150e-11 1.470523320212576141e-08 2.904239460150760759e-14 3.559434472327477622e-06
3.971999999999999958e-11 3.694456170323160790e-08 1.439340266754906811e-13 6.772854871245677111e-06
9.975999999999999982e-11 9.278976412613005154e-08 6.812143616221268841e-13 1.246890511177539320e-05
2.505999999999999928e-10 2.330928829758143313e-07 3.107749196951638608e-12 2.212095130576091967e-05
6.294000000000000186e-10 5.854398883216247602e-07 1.363250409771533549e-11 3.761981047239428883e-05
1.581000000000000021e-09 1.470619631082054101e-06 5.726014178088476303e-11 6.095350986710739404e-05
3.971999999999999932e-09 3.694861084648016046e-06 2.210019573374265380e-10 8.628023653304385055e-05
5.000000000000000105e-09 4.651201787816927976e-06 3.071485916280120014e-10 9.387863480799757518e-05
9.975999999999999465e-09 9.280587964640925786e-06 8.385361004129998845e-10 1.356922228656245837e-04
1.989999999999999952e-08 1.851419242998081003e-05 2.287763168863418088e-09 1.782101978513718314e-04
3.972999999999999908e-08 3.696699295748789187e-05 6.061583099087538954e-09 2.308134738384234820e-04
7.925999999999999637e-08 7.375765469301719828e-05 1.575347858094044765e-08 2.960532096713864875e-04
1.580999999999999930e-07 1.471491184379128891e-04 3.910429618672550719e-08 3.402859755131850544e-04
1.991000000000000027e-07 1.853209783927820692e-04 5.252045687899177454e-08 3.626488188833278743e-04
3.155999999999999938e-07 2.938002528823880299e-04 9.730770378831954314e-08 4.630767356912104081e-04
5.000999999999999849e-07 4.656344063839075714e-04 1.837494945860225819e-07 5.430301232045120323e-04
6.295999999999999732e-07 5.862651417037388971e-04 2.503103884558263872e-07 5.605192962670089638e-04
9.666999999999999941e-07 9.003386739730535665e-04 4.324450868778576936e-07 5.993081670211623108e-04
1.531999999999999901e-06 1.427170885631398036e-03 7.780217275717420968e-07 7.125938556504039095e-04
2.506999999999999883e-06 2.336134972129507662e-03 1.471005394641589826e-06 8.121876172121876309e-04
3.974000000000000407e-06 3.704315759716615697e-03 2.695705763844323844e-06 9.780674166779417152e-04
4.830000000000000343e-06 4.502887798316278223e-03 3.503988717694660908e-06 1.046253037768318664e-03
6.080999999999999885e-06 5.670217999231269741e-03 4.731126407333307547e-06 1.056224360839501646e-03
7.930000000000000308e-06 7.396012414119570652e-03 6.599662989063778187e-06 1.109203753630785610e-03
9.982000000000000313e-06 9.311815711689977113e-03 8.879881089227186733e-06 1.271216815433141075e-03
1.256999999999999993e-05 1.172874412604260098e-02 1.207676739913533738e-05 1.374195438212825332e-03
1.521999999999999997e-05 1.420427250933824909e-02 1.547541302213394990e-05 1.371610497379100249e-03
1.991000000000000080e-05 1.858690797761085312e-02 2.160710455847765458e-05 1.426578142835871997e-03
2.506999999999999883e-05 2.341050104039446925e-02 2.908031724375689851e-05 1.672007475975408053e-03
2.790999999999999875e-05 2.606604784714952258e-02 3.357009132255487721e-05 1.709425557744154774e-03
3.806999999999999973e-05 3.556967988784798945e-02 4.986781576435106434e-05 1.720407281314112165e-03
5.063000000000000145e-05 4.732434580343149871e-02 7.073400252905581275e-05 1.829889149838781265e-03
6.592000000000000583e-05 6.164112392498975052e-02 9.765037643900635188e-05 1.930242980462695823e-03
8.433000000000000066e-05 7.888776783401378612e-02 1.317235490470395893e-04 2.021055815200022837e-03
1.062000000000000064e-04 9.938561165478684845e-02 1.740088341640037047e-04 2.104789529260958983e-03
1.321000000000000126e-04 1.236720406455826121e-01 2.260189757651373944e-04 2.178291718403657477e-03
1.623999999999999901e-04 1.520974545104751274e-01 2.888169908545388338e-04 2.240170365918073281e-03
1.689999999999999879e-04 1.582907717069566844e-01 3.027354772999506964e-04 2.254509350360745651e-03
1.758999999999999930e-04 1.647661861691531171e-01 3.173785841705756782e-04 2.268169273277113179e-03
1.830000000000000029e-04 1.714298948183871907e-01 3.325196584577469103e-04 2.276170334580628063e-03
1.901999999999999882e-04 1.781880600978280049e-01 3.479577791899843742e-04 2.292561569242367037e-03
1.977000000000000079e-04 1.852284385240466902e-01 3.641242634600037713e-04 2.299943765467868384e-03
2.054000000000000053e-04 1.924572004474696396e-01 3.808304060475003897e-04 2.322187632288155723e-03
2.079000000000000119e-04 1.948043378760714872e-01 3.864137987380476553e-04 2.435429768083530178e-03
2.081999999999999921e-04 1.950859988578999005e-01 3.870314100985603909e-04 1.950065624557156818e-03
2.090999999999999868e-04 1.959309855029948977e-01 3.881261957135444685e-04 6.411875526909013856e-04
2.159999999999999919e-04 2.024093317906446865e-01 3.940874488768042125e-04 1.199166870571831411e-03
2.231000000000000019e-04 2.090756740932291913e-01 4.013938420547467825e-04 9.928616047829054436e-04
2.311000000000000066e-04 2.165873044433437034e-01 4.085241694843774404e-04 9.056166966301716637e-04
2.401000000000000085e-04 2.250381721984245909e-01 4.159700687886608468e-04 8.565463878902855599e-04
2.500000000000000052e-04 2.343344406330727658e-01 4.237602369176299592e-04 8.194318812157330018e-04
2.642999999999999733e-04 2.477629128650125634e-01 4.345596643180389446e-04 7.890063723638815647e-04
3.052999999999999941e-04 2.862671839140227270e-01 4.644058706720978241e-04 7.612775562167708662e-04
3.533000000000000224e-04 3.313503829113090826e-01 4.987577676308450197e-04 7.626578558207241024e-04
4.075999999999999871e-04 3.823564017794535141e-01 5.381334366106255759e-04 7.813048116943254948e-04
4.679999999999999915e-04 4.390986251953180042e-01 5.832692638200615834e-04 8.096035963157804938e-04
5.341000000000000261e-04 5.012024644415256081e-01 6.346556894078133086e-04 8.452514814113673558e-04
6.059000000000000366e-04 5.686690698184251325e-01 6.930641302632923034e-04 8.862253587289389486e-04
7.661000000000000275e-04 7.192254882508629654e-01 8.328184776562496576e-04 9.702780530519144065e-04
1.262000000000000101e-03 1.185459127778160093e+00 1.338484980802662205e-03 1.198863597978450275e-03
1.894999999999999983e-03 1.780909071169781921e+00 2.123481960401060308e-03 1.437771491635827115e-03
2.673000000000000029e-03 2.513147344746868850e+00 3.261860252001994032e-03 1.671524566936786766e-03
3.605999999999999830e-03 3.391736073717691369e+00 4.828136641022434151e-03 1.893900408978071038e-03
4.709999999999999777e-03 4.431905410739045870e+00 6.903512974832482635e-03 2.096551352830673849e-03
7.496000000000000059e-03 7.058993649504918366e+00 1.289742191321638018e-02 2.466596387205546859e-03
1.119999999999999989e-02 1.055540362104863661e+01 2.212077014004794340e-02 2.809304433764861584e-03
1.600000000000000033e-02 1.509117352747679952e+01 3.559566804390756900e-02 3.132325055719984222e-03
2.206999999999999934e-02 2.083310616724802244e+01 5.457322122755020599e-02 3.477840948757840792e-03
2.947999999999999926e-02 2.785007348564149154e+01 8.049103664263126956e-02 3.909302116317729670e-03
4.268000000000000266e-02 4.036707211535221518e+01 1.353887601042819133e-01 4.862066536253286525e-03
6.219999999999999835e-02 5.891246509830522626e+01 2.419691225623893105e-01 6.630786177272363080e-03
7.316999999999999893e-02 6.935151695866235855e+01 3.161896974764099033e-01 7.588671314871411888e-03
7.595999999999999974e-02 7.200836722020332559e+01 3.371250777904805096e-01 8.170805199905812125e-03
7.685877551020407761e-02 7.286441685499586640e+01 3.442155207723092136e-01 8.394680407734890840e-03
7.775755102040816935e-02 7.372055056581709209e+01 3.515051275386197327e-01 8.634440744994238345e-03
7.865632653061224722e-02 7.457676976025442173e+01 3.590073214068990048e-01 8.889550993304825080e-03
7.955510204081632508e-02 7.543307596454444308e+01 3.667350735048935939e-01 9.159475934287631890e-03
8.045387755102040295e-02 7.628947081444215428e+01 3.747009027598274256e-01 9.443680349563634419e-03
8.135265306122449469e-02 7.714595604649822747e+01 3.829168758873552347e-01 9.741629020753811777e-03
8.225142857142857256e-02 7.800253348972167089e+01 3.913946073776558010e-01 1.005278672947913093e-02
8.315020408163265042e-02 7.885920505760704202e+01 4.001452594763180715e-01 1.037661825736057794e-02
8.404897959183672829e-02 7.971597274050547810e+01 4.091795421578989234e-01 1.071258838601912150e-02
8.494775510204082003e-02 8.057283859832247686e+01 4.185077130902489784e-01 1.106016189707574940e-02
8.584653061224489790e-02 8.142980475352385383e+01 4.281395775878977794e-01 1.141880357215142167e-02
8.674530612244897576e-02 8.228687338443423016e+01 4.380844885529792121e-01 1.178797819286712956e-02
8.764408163265305363e-02 8.314404671881253250e+01 4.483513464023449746e-01 1.216715054084384177e-02
8.854285714285714537e-02 8.400132702769023751e+01 4.589485989796805998e-01 1.255578539770253743e-02
8.944163265306122323e-02 8.485871661945903099e+01 4.698842414515854715e-01 1.295334754506418870e-02
9.034040816326530110e-02 8.571621783419435303e+01 4.811658161867224393e-01 1.335930176454977643e-02
9.123918367346939284e-02 8.657383303820456888e+01 4.928004126172697563e-01 1.377311283778027799e-02
9.213795918367347071e-02 8.743156461879272001e+01 5.047946670820351311e-01 1.419424554637666383e-02
9.303673469387754857e-02 8.828941497922107828e+01 5.171547626507086992e-01 1.462216467195991305e-02
9.393551020408162644e-02 8.914738653386886824e+01 5.298864289288334195e-01 1.505633499615100478e-02
9.483428571428570431e-02 9.000548170357329525e+01 5.429949418431806452e-01 1.549622130057090943e-02
9.573306122448979605e-02 9.086370291114467079e+01 5.564851234073111552e-01 1.594128836684061482e-02
9.663183673469387391e-02 9.172205257704820269e+01 5.703613414671890869e-01 1.639100097658108615e-02
9.753061224489795178e-02 9.258053311524359685e+01 5.846275094268085226e-01 1.684482391141330082e-02
9.842938775510204352e-02 9.343914692917569198e+01 5.992870859538619310e-01 1.730222195295824661e-02
9.932816326530612139e-02 9.429789640790821181e+01 6.143430746655628161e-01 1.776265988283688008e-02
1.002269387755101993e-01 9.515678392239566108e+01 6.297980237948047622e-01 1.822560248267018901e-02
1.011257142857142910e-01 9.601581182188454022e+01 6.456540258368996810e-01 1.869051453407916119e-02
1.020244897959183689e-01 9.687498243043982882e+01 6.619127171772086760e-01 1.915686081868474971e-02
1.029232653061224467e-01 9.773429804359116702e+01 6.785752777000368940e-01 1.962410611810794236e-02
1.038220408163265246e-01 9.859376092509155853e+01 6.956424303792151376e-01 2.009171521396971305e-02
1.047208163265306025e-01 9.945337330378514196e+01 7.131144408508519605e-01 2.055915288789104609e-02
1.056195918367346942e-01 1.003131373705793550e+02 7.309911169687858257e-01 2.102588392149291191e-02
1.065183673469387721e-01 1.011730552755154093e+02 7.492718083433149712e-01 2.149137309639628790e-02
1.074171428571428499e-01 1.020331291249339074e+02 7.679554058638341507e-01 2.195508519422214450e-02
1.083159183673469417e-01 1.028933609787318630e+02 7.870403412060406056e-01 2.241648499659147295e-02
1.092146938775510195e-01 1.037537528477056696e+02 8.065245863244222546e-01 2.287503728512522982e-02
1.101134693877550974e-01 1.046143066909783244e+02 8.264056529307778343e-01 2.333020684144439943e-02
1.110122448979591891e-01 1.054750244135051815e+02 8.466805919595516983e-01 2.378145844716997304e-02
1.119110204081632531e-01 1.063359078636572974e+02 8.673459930208060609e-01 2.422825688392290372e-02
1.128097959183673449e-01 1.071969588308770085e+02 8.883979838416921071e-01 2.467006693332418621e-02
1.137085714285714227e-01 1.080581790434043228e+02 9.098322296972959355e-01 2.510635337699478054e-02
1.146073469387755006e-01 1.089195701660702440e+02 9.316439328317941415e-01 2.553658099655567101e-02
1.155061224489795924e-01 1.097811337981553805e+02 9.538278318708562908e-01 2.596021457362784890e-02
1.164048979591836702e-01 1.106428714713095758e+02 9.763782012262758325e-01 2.637671888983226035e-02
1.173036734693877481e-01 1.115047846475321762e+02 9.992888504938376437e-01 2.678555872678990354e-02
1.182024489795918398e-01 1.123668747172090292e+02 1.022553123845447276e+00 2.718619886612174893e-02
1.191012244897959177e-01 1.132291429972045336e+02 1.046163899416579612e+00 2.757810408944877736e-02
1.199999999999999956e-01 1.140915907290072369e+02 1.070113588690132511e+00 2.796073917839194886e-02
1.224862651056414925e-01 1.164783106225080189e+02 1.138071986179330697e+00 2.898611747685026635e-02
1.249725302112829894e-01 1.188664352301176166e+02 1.208529549593362340e+00 3.002023105656023011e-02
1.274587953169244725e-01 1.212559865612359573e+02 1.281509859666776441e+00 3.106236226614787072e-02
1.299450604225659833e-01 1.236469862108637869e+02 1.357034879239567449e+00 3.211179907059679567e-02
1.324313255282074664e-01 1.260394553525138122e+02 1.435124961840872793e+00 3.316783523660996741e-02
1.349175906338489772e-01 1.284334147318172654e+02 1.515798860549152138e+00 3.422977050745745070e-02
1.374038557394904603e-01 1.308288846607691198e+02 1.599073737116216920e+00 3.529691076854241105e-02
1.398901208451319711e-01 1.332258850125553522e+02 1.684965171345207846e+00 3.636856820477039898e-02
1.423763859507734542e-01 1.356244352169187266e+02 1.773487170714919570e+00 3.744406145067907116e-02
1.448626510564149650e-01 1.380245542560172680e+02 1.864652180244992463e+00 3.852271573417981321e-02
1.473489161620564480e-01 1.404262606607386772e+02 1.958471092598256247e+00 3.960386301467053866e-02
1.498351812676979589e-01 1.428295725074369216e+02 2.054953258418187989e+00 4.068684211620195168e-02
1.523214463733394419e-01 1.452345074150570099e+02 2.154106496900821899e+00 4.177099885631074816e-02
1.548077114789809250e-01 1.476410825426245310e+02 2.255937106601802355e+00 4.285568617108018868e-02
1.572939765846224358e-01 1.500493145870692899e+02 2.360449876480370524e+00 4.394026423693735139e-02
1.597802416902639466e-01 1.524592197813651921e+02 2.467648097183164690e+00 4.502410058965824330e-02
1.622665067959054297e-01 1.548708138929621612e+02 2.577533572571669929e+00 4.610657024101676160e-02
1.647527719015469128e-01 1.572841122224928938e+02 2.690106631498019318e+00 4.718705579348494300e-02
1.672390370071884236e-01 1.596991296027380827e+02 2.805366139834673866e+00 4.826494755336888792e-02
1.697253021128299344e-01 1.621158803978325409e+02 2.923309512764277418e+00 4.933964364274437409e-02
1.722115672184714175e-01 1.645343785027007186e+02 3.043932727336704502e+00 5.041055011054088736e-02
1.746978323241129005e-01 1.669546373427087929e+02 3.167230335300999400e+00 5.147708104310939198e-02
1.771840974297544113e-01 1.693766698735190346e+02 3.293195476220553530e+00 5.253865867459966976e-02
1.796703625353958944e-01 1.718004885811408542e+02 3.421819890880517079e+00 5.359471349746475904e-02
1.821566276410374052e-01 1.742261054821652237e+02 3.553093934997078485e+00 5.464468437340573581e-02
1.846428927466788883e-01 1.766535321241751149e+02 3.687006593238791652e+00 5.568801864506429250e-02
1.871291578523203714e-01 1.790827795863267795e+02 3.823545493570823517e+00 5.672417224877066705e-02
1.896154229579618822e-01 1.815138584800905903e+02 3.962696921933509309e+00 5.775260982865219883e-02
1.921016880636033930e-01 1.839467789501493371e+02 4.104445837267254760e+00 5.877280485240936325e-02
1.945879531692448761e-01 1.863815506754463627e+02 4.248775886896428489e+00 5.978423972906718453e-02
1.970742182748863591e-01 1.888181828703786493e+02 4.395669422285474859e+00 6.078640592901267403e-02
1.995604833805278699e-01 1.912566842861311045e+02 4.545107515181110003e+00 6.177880410663241784e-02
2.020467484861693808e-01 1.936970632121486915e+02 4.697069974155098748e+00 6.276094422586926680e-02
2.045330135918108638e-01 1.961393274777407782e+02 4.851535361562763882e+00 6.373234568902057251e-02
2.070192786974523469e-01 1.985834844538177038e+02 5.008481010933021338e+00 6.469253746910719194e-02
2.095055438030938577e-01 2.010295410547544748e+02 5.167883044806409032e+00 6.564105824614815954e-02
2.119918089087353685e-01 2.034775037403805982e+02 5.329716393038283151e+00 6.657745654768132404e-02
2.144780740143768516e-01 2.059273785180946277e+02 5.493954811585080478e+00 6.750129089387869874e-02
2.169643391200183347e-01 2.083791709450999576e+02 5.660570901792241649e+00 6.841212994761100563e-02
2.194506042256598455e-01 2.108328861307642512e+02 5.829536130203155864e+00 6.930955266982409546e-02
2.219368693313013285e-01 2.132885287390976146e+02 6.000820848909276251e+00 7.019314848059715617e-02
2.244231344369428394e-01 2.157461029913514210e+02 6.174394316462351817e+00 7.106251742626061574e-02
2.269093995425843224e-01 2.182056126687368192e+02 6.350224719370483051e+00 7.191727035295972237e-02
2.293956646482258055e-01 2.206670611152632091e+02 6.528279194200649727e+00 7.275702908705806993e-02
2.318819297538673163e-01 2.231304512406967717e+02 6.708523850311113534e+00 7.358142662278248369e-02
2.343681948595088271e-01 2.255957855236382272e+02 6.890923793238058259e+00 7.439010731752035421e-02
2.368544599651503102e-01 2.280630660147230628e+02 7.075443148761721091e+00 7.518272709518762642e-02
2.393407250707917933e-01 2.305322943399431779e+02 7.262045087678191457e+00 7.595895365809399169e-02
2.418269901764333041e-01 2.330034717040907708e+02 7.450691851304006796e+00 7.671846670774062904e-02
3.185243985401795541e-01 3.110622621450633005e+02 2.145688359339321494e+01 2.767884900570545259e-01
3.952218069039258319e-01 3.941067267303463950e+02 5.030925811306930484e+01 4.121216894817325560e-01
4.719192152676721097e-01 4.837412276762957504e+02 8.797089717393380681e+01 4.281309490903748016e-01
5.486166236314183875e-01 5.798497629888814799e+02 1.298955603762884721e+02 4.441402086990170472e-01
6.253140319951646653e-01 6.821252907322825649e+02 1.761503474642692595e+02 4.601494683076592929e-01
7.020114403589108321e-01 7.903466148754148435e+02 2.268283879320769643e+02 4.761587279163015385e-01
7.787088487226571099e-01 9.043524438952629225e+02 2.820414978569281175e+02 4.921679875249437841e-01
8.554062570864033876e-01 1.024025191791762154e+03 3.419157801373754637e+02 5.081772471335860297e-01
9.321036654501496654e-01 1.149280313010038071e+03 4.065888488985838194e+02 5.241865067422283309e-01
1.008801073813895943e+00 1.280058981376424526e+03 4.762080107213777183e+02 5.401957663508705210e-01
1.085498482177642332e+00 1.416322891847680239e+03 5.509290395054124474e+02 5.562050259595128221e-01
1.162195890541388499e+00 1.558050465216585053e+03 6.309153355155390273e+02 5.722142855681551232e-01
1.238893298905134666e+00 1.705234011669389929e+03 7.163373419882806274e+02 5.882235451767973133e-01
1.315590707268881054e+00 1.857880275440244986e+03 8.075990939366271277e+02 6.071017536417065985e-01
1.392288115632627443e+00 2.016169761963493329e+03 9.244699129250735723e+02 8.605456775841265893e-01
1.468985523996373610e+00 2.181978538435467271e+03 1.063317152914456528e+03 8.161741275382015104e-01
1.545682932360119777e+00 2.355001164219384918e+03 1.200547359255838046e+03 7.718025774922764315e-01
1.622380340723866166e+00 2.534774050787077613e+03 1.335172901157783372e+03 7.274310274463512416e-01
1.699077749087612332e+00 2.720832201307499417e+03 1.466266670353456675e+03 6.830594774004261627e-01
1.775775157451358721e+00 2.912712193117528386e+03 1.592964342704521641e+03 6.386879273545009728e-01
1.852472565815104888e+00 3.109900105306249316e+03 1.708551483002648865e+03 5.357612978457095831e-01
1.929169974178851277e+00 3.311480971793271692e+03 1.805385312030119621e+03 4.266087837266846483e-01
2.005867382542597444e+00 3.516486106635582473e+03 1.881539518729218798e+03 3.174562696076600465e-01
2.082564790906343610e+00 3.724044462798609857e+03 1.940973355532095638e+03 2.556838247476825865e-01
