# density  energy_density  pressure   sound_speed_squared  [All in nuclear units]
2.720000000000000022e-14 2.529924618736292620e-11 1.061056609100270887e-19 3.766610435412189122e-08
1.269999999999999890e-13 1.181251617980081254e-10 4.870113551826584858e-18 6.497781477172163475e-08
6.929999999999999754e-13 6.445728594625782745e-10 1.018299070687946017e-16 3.033770597342807186e-07
6.295000000000000137e-12 5.855111460395753757e-09 5.487150723824490656e-15 1.763710043904196507e-06
1.581000000000000150e-11 1.470523320212576141e-08 2.904239460150760759e-14 3.559434472327477622e-06
3.971999999999999958e-11 3.694456170323160790e-08 1.439340266754906811e-13 6.772854871245677111e-06
9.975999999999999982e-11 9.278976412613005154e-08 6.812143616221268841e-13 1.246890511177539320e-05
2.505999999999999928e-10 2.330928829758143313e-07 3.107749196951638608e-12 2.212095130576091967e-05
6.294000000000000186e-10 5.854398883216247602e-07 1.363250409771533549e-11 3.761981047239428883e-05
1.581000000000000021e-09 1.470619631082054101e-06 5.726014178088476303e-11 6.095350986710739404e-05
3.971999999999999932e-09 3.694861084648016046e-06 2.210019573374265380e-10 8.628023653304385055e-05
5.000000000000000105e-09 4.651201787816927976e-06 3.071485916280120014e-10 9.387863480799757518e-05
9.975999999999999465e-09 9.280587964640925786e-06 8.385361004129998845e-10 1.356922228656245837e-04
1.989999999999999952e-08 1.851419242998081003e-05 2.287763168863418088e-09 1.782101978513718314e-04
3.972999999999999908e-08 3.696699295748789187e-05 6.061583099087538954e-09 2.308134738384234820e-04
7.925999999999999637e-08 7.375765469301719828e-05 1.575347858094044765e-08 2.960532096713864875e-04
1.580999999999999930e-07 1.471491184379128891e-04 3.910429618672550719e-08 3.402859755131850544e-04
1.991000000000000027e-07 1.853209783927820692e-04 5.252045687899177454e-08 3.626488188833278743e-04
3.155999999999999938e-07 2.938002528823880299e-04 9.730770378831954314e-08 4.630767356912104081e-04
5.000999999999999849e-07 4.656344063839075714e-04 1.837494945860225819e-07 5.430301232045120323e-04
6.295999999999999732e-07 5.862651417037388971e-04 2.503103884558263872e-07 5.605192962670089638e-04
9.666999999999999941e-07 9.003386739730535665e-04 4.324450868778576936e-07 5.993081670211623108e-04
1.531999999999999901e-06 1.427170885631398036e-03 7.780217275717420968e-07 7.125938556504039095e-04
2.506999999999999883e-06 2.336134972129507662e-03 1.471005394641589826e-06 8.121876172121876309e-04
3.974000000000000407e-06 3.704315759716615697e-03 2.695705763844323844e-06 9.780674166779417152e-04
4.830000000000000343e-06 4.502887798316278223e-03 3.503988717694660908e-06 1.046253037768318664e-03
6.080999999999999885e-06 5.670217999231269741e-03 4.731126407333307547e-06 1.056224360839501646e-03
7.930000000000000308e-06 7.396012414119570652e-03 6.599662989063778187e-06 1.109203753630785610e-03
9.982000000000000313e-06 9.311815711689977113e-03 8.879881089227186733e-06 1.271216815433141075e-03
1.256999999999999993e-05 1.172874412604260098e-02 1.207676739913533738e-05 1.374195438212825332e-03
1.521999999999999997e-05 1.420427250933824909e-02 1.547541302213394990e-05 1.371610497379100249e-03
1.991000000000000080e-05 1.858690797761085312e-02 2.160710455847765458e-05 1.426578142835871997e-03
2.506999999999999883e-05 2.341050104039446925e-02 2.908031724375689851e-05 1.672007475975408053e-03
2.790999999999999875e-05 2.606604784714952258e-02 3.357009132255487721e-05 1.709425557744154774e-03
3.806999999999999973e-05 3.556967988784798945e-02 4.986781576435106434e-05 1.720407281314112165e-03
5.063000000000000145e-05 4.732434580343149871e-02 7.073400252905581275e-05 1.829889149838781265e-03
6.592000000000000583e-05 6.164112392498975052e-02 9.765037643900635188e-05 1.930242980462695823e-03
8.433000000000000066e-05 7.888776783401378612e-02 1.317235490470395893e-04 2.021055815200022837e-03
1.062000000000000064e-04 9.938561165478684845e-02 1.740088341640037047e-04 2.104789529260958983e-03
1.321000000000000126e-04 1.236720406455826121e-01 2.260189757651373944e-04 2.178291718403657477e-03
1.623999999999999901e-04 1.520974545104751274e-01 2.888169908545388338e-04 2.240170365918073281e-03
1.689999999999999879e-04 1.582907717069566844e-01 3.027354772999506964e-04 2.254509350360745651e-03
1.758999999999999930e-04 1.647661861691531171e-01 3.173785841705756782e-04 2.268169273277113179e-03
1.830000000000000029e-04 1.714298948183871907e-01 3.325196584577469103e-04 2.276170334580628063e-03
1.901999999999999882e-04 1.781880600978280049e-01 3.479577791899843742e-04 2.292561569242367037e-03
1.977000000000000079e-04 1.852284385240466902e-01 3.641242634600037713e-04 2.299943765467868384e-03
2.054000000000000053e-04 1.924572004474696396e-01 3.808304060475003897e-04 2.322187632288155723e-03
2.079000000000000119e-04 1.948043378760714872e-01 3.864137987380476553e-04 2.435429768083530178e-03
2.081999999999999921e-04 1.950859988578999005e-01 3.870314100985603909e-04 1.950065624557156818e-03
2.090999999999999868e-04 1.959309855029948977e-01 3.881261957135444685e-04 6.411875526909013856e-04
2.159999999999999919e-04 2.024093317906446865e-01 3.940874488768042125e-04 1.199166870571831411e-03
2.231000000000000019e-04 2.090756740932291913e-01 4.013938420547467825e-04 9.928616047829054436e-04
2.311000000000000066e-04 2.165873044433437034e-01 4.085241694843774404e-04 9.056166966301716637e-04
2.401000000000000085e-04 2.250381721984245909e-01 4.159700687886608468e-04 8.565463878902855599e-04
2.500000000000000052e-04 2.343344406330727658e-01 4.237602369176299592e-04 8.194318812157330018e-04
2.642999999999999733e-04 2.477629128650125634e-01 4.345596643180389446e-04 7.890063723638815647e-04
3.052999999999999941e-04 2.862671839140227270e-01 4.644058706720978241e-04 7.612775562167708662e-04
3.533000000000000224e-04 3.313503829113090826e-01 4.987577676308450197e-04 7.626578558207241024e-04
4.075999999999999871e-04 3.823564017794535141e-01 5.381334366106255759e-04 7.813048116943254948e-04
4.679999999999999915e-04 4.390986251953180042e-01 5.832692638200615834e-04 8.096035963157804938e-04
5.341000000000000261e-04 5.012024644415256081e-01 6.346556894078133086e-04 8.452514814113673558e-04
6.059000000000000366e-04 5.686690698184251325e-01 6.930641302632923034e-04 8.862253587289389486e-04
7.661000000000000275e-04 7.192254882508629654e-01 8.328184776562496576e-04 9.702780530519144065e-04
1.262000000000000101e-03 1.185459127778160093e+00 1.338484980802662205e-03 1.198863597978450275e-03
1.894999999999999983e-03 1.780909071169781921e+00 2.123481960401060308e-03 1.437771491635827115e-03
2.673000000000000029e-03 2.513147344746868850e+00 3.261860252001994032e-03 1.671524566936786766e-03
3.605999999999999830e-03 3.391736073717691369e+00 4.828136641022434151e-03 1.893900408978071038e-03
4.709999999999999777e-03 4.431905410739045870e+00 6.903512974832482635e-03 2.096551352830673849e-03
7.496000000000000059e-03 7.058993649504918366e+00 1.289742191321638018e-02 2.466596387205546859e-03
1.119999999999999989e-02 1.055540362104863661e+01 2.212077014004794340e-02 2.809304433764861584e-03
1.600000000000000033e-02 1.509117352747679952e+01 3.559566804390756900e-02 3.132325055719984222e-03
2.206999999999999934e-02 2.083310616724802244e+01 5.457322122755020599e-02 3.477840948757840792e-03
2.947999999999999926e-02 2.785007348564149154e+01 8.049103664263126956e-02 3.909302116317729670e-03
4.268000000000000266e-02 4.036707211535221518e+01 1.353887601042819133e-01 4.862066536253286525e-03
6.219999999999999835e-02 5.891246509830522626e+01 2.419691225623893105e-01 6.630786177272363080e-03
7.316999999999999893e-02 6.935151695866235855e+01 3.161896974764099033e-01 7.588671314871411888e-03
7.595999999999999974e-02 7.200836722020332559e+01 3.371250777904805096e-01 8.170805199905812125e-03
7.685877551020407761e-02 7.286441686994670874e+01 3.442180794235172314e-01 8.400657632171869282e-03
7.775755102040816935e-02 7.372055066498472797e+01 3.515170157772006809e-01 8.650256037212374072e-03
7.865632653061224722e-02 7.457677010890074598e+01 3.590385293422995172e-01 8.918857792704480703e-03
7.955510204081632508e-02 7.543307685751655356e+01 3.667986342243929054e-01 9.205720276325362467e-03
8.045387755102040295e-02 7.628947270663263680e+01 3.748127161202374769e-01 9.510100865752185717e-03
8.135265306122449469e-02 7.714595958031615908e+01 3.830955322952319109e-01 9.831256938662120276e-03
8.225142857142857256e-02 7.800253951970589128e+01 3.916612115574760189e-01 1.016844587273231688e-02
8.315020408163265042e-02 7.885921467230645021e+01 4.005232542243707949e-01 1.052092504563995404e-02
8.404897959183672829e-02 7.971598728174518556e+01 4.096945320781159028e-01 1.088795183506218942e-02
8.494775510204082003e-02 8.057285967796607906e+01 4.191872883068514799e-01 1.126878361867619804e-02
8.584653061224489790e-02 8.142983426783881384e+01 4.290131374285465760e-01 1.166267777415913066e-02
8.674530612244897576e-02 8.228691352615940957e+01 4.391830651950756614e-01 1.206889167918816404e-02
8.764408163265305363e-02 8.314409998702339522e+01 4.497074284742305639e-01 1.248668271144046278e-02
8.854285714285714537e-02 8.400139623555105572e+01 4.605959551077135061e-01 1.291530824859319672e-02
8.944163265306122323e-02 8.485880489994750064e+01 4.718577437434237076e-01 1.335402566832351486e-02
9.034040816326530110e-02 8.571632864387981954e+01 4.835012636406100239e-01 1.380209234830859916e-02
9.123918367346939284e-02 8.657397015915547911e+01 4.955343544466938033e-01 1.425876566622561077e-02
9.213795918367347071e-02 8.743173215868726800e+01 5.079642259447945118e-01 1.472330299975170911e-02
9.303673469387754857e-02 8.828961736972948415e+01 5.207974577712000119e-01 1.519496172656406401e-02
9.393551020408162644e-02 8.914762852737341348e+01 5.340399991022144466e-01 1.567299922433984180e-02
9.483428571428570431e-02 9.000576836828787464e+01 5.476971683100064769e-01 1.615667287075620712e-02
9.573306122448979605e-02 9.086403962469418616e+01 5.617736525872513154e-01 1.664524004349033151e-02
9.663183673469387391e-02 9.172244501856334864e+01 5.762735075405212015e-01 1.713795812021936746e-02
9.753061224489795178e-02 9.258098725602579293e+01 5.912001567525381196e-01 1.763408447862048478e-02
9.842938775510204352e-02 9.343966902198202717e+01 6.065563913135377794e-01 1.813287649637086718e-02
9.932816326530612139e-02 9.429849297490657989e+01 6.223443693221374362e-01 1.863359155114764978e-02
1.002269387755101993e-01 9.515746174183519202e+01 6.385656153562283555e-01 1.913548702062801629e-02
1.011257142857142910e-01 9.601657791352650406e+01 6.552210199145277469e-01 1.963782028248913653e-02
1.020244897959183689e-01 9.687584403979126080e+01 6.723108388295474525e-01 2.013984871440815949e-02
1.029232653061224467e-01 9.773526262498040751e+01 6.898346926528443612e-01 2.064082969406225848e-02
1.038220408163265246e-01 9.859483612362535609e+01 7.077915660135133402e-01 2.114002059912860679e-02
1.047208163265306025e-01 9.945456693622368505e+01 7.261798069509888265e-01 2.163667880728436035e-02
1.056195918367346942e-01 1.003144574051636511e+02 7.449971262233100466e-01 2.213006169620668900e-02
1.065183673469387721e-01 1.011745098107813163e+02 7.642405965920902045e-01 2.261942664357275562e-02
1.074171428571428499e-01 1.020347263675448346e+02 7.839066520855209053e-01 2.310403102705972656e-02
1.083159183673469417e-01 1.028951092203597284e+02 8.039910872408103648e-01 2.358313222434477163e-02
1.092146938775510195e-01 1.037556604409914058e+02 8.244890563275397710e-01 2.405598761310504680e-02
1.101134693877550974e-01 1.046163820245975842e+02 8.453950725534919997e-01 2.452185457101772187e-02
1.110122448979591891e-01 1.054772758863685311e+02 8.667030072545683916e-01 2.497999047575997361e-02
1.119110204081632531e-01 1.063383438582692264e+02 8.884060890704815749e-01 2.542965270500895103e-02
1.128097959183673449e-01 1.071995876858788534e+02 9.104969031079780395e-01 2.587009863644182395e-02
1.137085714285714227e-01 1.080610090253253759e+02 9.329673900933856956e-01 2.630058564773576218e-02
1.146073469387755006e-01 1.089226094403092873e+02 9.558088455163666897e-01 2.672037111656792863e-02
1.155061224489795924e-01 1.097843903992146721e+02 9.790119187667827294e-01 2.712871242061549309e-02
1.164048979591836702e-01 1.106463532723030028e+02 1.002566612266648560e+00 2.752486693755561500e-02
1.173036734693877481e-01 1.115084993289872273e+02 1.026462280599199195e+00 2.790809204506546418e-02
1.182024489795918398e-01 1.123708297351824257e+02 1.050687629637132137e+00 2.827764512082221043e-02
1.191012244897959177e-01 1.132333455507307605e+02 1.075230715672145454e+00 2.863278354250300278e-02
1.199999999999999956e-01 1.140960477268970976e+02 1.100078944547933313e+00 2.897276468778501105e-02
1.217990735137913783e-01 1.158234775756379662e+02 1.150685055057900419e+00 2.961834137657302565e-02
1.235981470275827748e-01 1.175516632782961892e+02 1.202425194762444249e+00 3.025953181967596869e-02
1.253972205413741714e-01 1.192806102903408743e+02 1.255292498650417032e+00 3.089584931779447083e-02
1.271962940551655541e-01 1.210103238061339823e+02 1.309279253457448666e+00 3.152680933031683230e-02
1.289953675689569368e-01 1.227408087580211173e+02 1.364376898968646223e+00 3.215192936367750748e-02
1.307944410827483195e-01 1.244720698154891352e+02 1.420576029125249606e+00 3.277072886008003394e-02
1.325935145965397022e-01 1.262041113843845892e+02 1.477866392938303797e+00 3.338272908678787537e-02
1.343925881103311126e-01 1.279369376061858503e+02 1.536236895212701237e+00 3.398745302615843733e-02
1.361916616241224953e-01 1.296705523573218954e+02 1.595675597085209230e+00 3.458442526658068311e-02
1.379907351379138780e-01 1.314049592485335722e+02 1.656169716380351264e+00 3.517317189445978015e-02
1.397898086517052607e-01 1.331401616242714567e+02 1.717705627788196354e+00 3.575322038737188679e-02
1.415888821654966434e-01 1.348761625621263534e+02 1.780268862868323865e+00 3.632409950850169766e-02
1.433879556792880539e-01 1.366129648722866818e+02 1.843844109884383631e+00 3.688533920245783138e-02
1.451870291930794366e-01 1.383505710970208042e+02 1.908415213473812821e+00 3.743647049255009046e-02
1.469861027068708192e-01 1.400889835101801282e+02 1.973965174157420899e+00 3.797702537960220837e-02
1.487851762206622019e-01 1.418282041167186094e+02 2.040476147693630615e+00 3.850653674235980650e-02
1.505842497344536124e-01 1.435682346522278010e+02 2.107929444282294007e+00 3.902453823954684514e-02
1.523833232482449951e-01 1.453090765824826178e+02 2.176305527623058289e+00 3.953056421361280520e-02
1.541823967620363778e-01 1.470507311029980428e+02 2.245584013833354042e+00 4.002414959620540641e-02
1.559814702758277605e-01 1.487931991385916888e+02 2.315743670231103390e+00 4.050482981539664518e-02
1.577805437896191432e-01 1.505364813429526407e+02 2.386762413987329801e+00 4.097214070468228886e-02
1.595796173034105259e-01 1.522805780982138799e+02 2.458617310653868682e+00 4.142561841376957849e-02
1.613786908172019363e-01 1.540254895145256171e+02 2.531284572571422586e+00 4.186479932116240338e-02
1.631777643309933190e-01 1.557712154296308427e+02 2.604739557163219477e+00 4.228921994854776406e-02
1.649768378447847017e-01 1.575177554084392852e+02 2.678956765119575589e+00 4.269841687698328059e-02
1.667759113585760844e-01 1.592651087425991534e+02 2.753909838478640904e+00 4.309192666488192297e-02
1.685749848723674948e-01 1.610132744500673994e+02 2.829571558608654058e+00 4.346928576778548436e-02
1.703740583861588775e-01 1.627622512746749521e+02 2.905913844097006482e+00 4.383003045991688829e-02
1.721731318999502602e-01 1.645120376856885969e+02 2.982907748551450133e+00 4.417369675749745206e-02
1.739722054137416429e-01 1.662626318773670562e+02 3.060523458318746393e+00 4.449982034381347318e-02
1.757712789275330256e-01 1.680140317685116145e+02 3.138730290126078959e+00 4.480793649601488848e-02
1.775703524413244083e-01 1.697662350020109443e+02 3.217496688650538061e+00 4.509758001362635521e-02
1.793694259551158188e-01 1.715192389443787420e+02 3.296790224021977522e+00 4.536828514875088092e-02
1.811684994689072015e-01 1.732730406852854799e+02 3.376577589264535106e+00 4.561958553794397825e-02
1.829675729826985842e-01 1.750276370370820302e+02 3.456824597682121691e+00 4.585101413573672985e-02
1.847666464964899946e-01 1.767830245343169224e+02 3.537496180193138606e+00 4.606210314978476800e-02
1.865657200102813773e-01 1.785391994332453578e+02 3.618556382619708689e+00 4.625238397762074238e-02
1.883647935240727600e-01 1.802961577113323699e+02 3.699968362936700839e+00 4.642138714498693364e-02
1.901638670378641427e-01 1.820538950667458664e+02 3.781694388485791869e+00 4.656864224572611344e-02
1.919629405516555254e-01 1.838124069178452942e+02 3.863695833159839665e+00 4.669367788320780144e-02
1.937620140654469081e-01 1.855716884026611524e+02 3.945933174562826995e+00 4.679602161326891496e-02
1.955610875792382908e-01 1.873317343783677984e+02 4.028365991150628211e+00 4.687519988864777970e-02
1.973601610930296735e-01 1.890925394207489205e+02 4.110952959357868863e+00 4.693073800489165615e-02
1.991592346068210839e-01 1.908540978236571277e+02 4.193651850716137552e+00 4.696216004771956720e-02
2.009583081206124666e-01 1.926164035984666327e+02 4.276419528968825823e+00 4.696898884182220540e-02
2.027573816344038771e-01 1.943794504735190571e+02 4.359211947187889180e+00 4.695074590108384849e-02
2.045564551481952598e-01 1.961432318935638648e+02 4.441984144897805464e+00 4.690695138021113569e-02
2.063555286619866425e-01 1.979077410191940203e+02 4.524690245212072526e+00 4.683712402775624950e-02
2.081546021757780252e-01 1.996729707262744569e+02 4.607283451987552070e+00 4.674078114052367117e-02
2.855392021313744033e-01 2.769003393339555714e+02 1.286123646471154558e+01 1.650119880597694655e-01
3.629238020869707260e-01 3.575516204445260655e+02 3.107756459751135836e+01 2.832831949790151627e-01
4.403084020425671041e-01 4.431651272884015498e+02 6.059070512486638904e+01 4.015544018982609153e-01
5.176930019981634823e-01 5.349989279782319045e+02 1.031601841228434466e+02 5.198256088175067235e-01
5.950776019537598049e-01 6.342219593966456159e+02 1.609447624841534434e+02 6.380968157367524762e-01
6.724622019093562386e-01 7.419552603433463673e+02 2.336975967706453048e+02 7.082950827138051464e-01
7.498468018649526723e-01 8.587807361412083083e+02 3.168846146266192250e+02 7.158237782861013310e-01
8.272314018205488839e-01 9.845709764428411290e+02 4.074053084726265297e+02 7.233524738583974045e-01
9.046160017761453176e-01 1.119173887942495412e+03 5.052834512743317532e+02 7.308811694306935891e-01
9.820006017317417513e-01 1.262466310011146788e+03 6.105608120664330727e+02 7.384098650029897737e-01
1.059385201687337963e+00 1.414348435034231898e+03 7.232938278063660391e+02 7.459385605752859583e-01
1.136769801642934397e+00 1.574738094594297309e+03 8.433758122950160896e+02 7.513919623268596748e-01
1.214154401598530830e+00 1.743394551058347133e+03 9.564298603560359879e+02 5.952121084131318796e-01
1.291539001554127264e+00 1.918501493994337352e+03 1.046639710409315967e+03 4.390322544994040843e-01
1.368923601509723476e+00 2.098211219800415165e+03 1.111298437516538343e+03 2.828524005856767887e-01
1.446308201465319909e+00 2.280901458184980584e+03 1.154674370906864624e+03 1.927610511313246622e-01
1.523692801420916343e+00 2.465658657271736047e+03 1.190340687767261215e+03 1.933402379478235955e-01
1.601077401376512555e+00 2.652239540255586689e+03 1.226467245074919447e+03 1.939194247643225288e-01
1.678462001332108988e+00 2.840577898679308873e+03 1.263043282251723667e+03 1.944986115808214344e-01
1.755846601287705422e+00 3.030613161729106650e+03 1.300059024343499232e+03 1.950777983973203678e-01
1.833231201243301633e+00 3.222289690562925443e+03 1.337505556699509270e+03 1.956569852138193011e-01
1.910615801198898067e+00 3.415670280791802725e+03 1.382540316772038523e+03 2.696816301168695196e-01
1.988000401154494501e+00 3.611571778182293656e+03 1.493870184492702265e+03 8.566743030766063027e-01
2.065385001110090712e+00 3.813608974459212277e+03 1.664787106013983703e+03 8.359290210757059914e-01
