# density  energy_density  pressure   sound_speed_squared  [All in nuclear units]
2.720000000000000022e-14 2.529924618736292620e-11 1.061056609100270887e-19 3.766610435412189122e-08
1.269999999999999890e-13 1.181251617980081254e-10 4.870113551826584858e-18 6.497781477172163475e-08
6.929999999999999754e-13 6.445728594625782745e-10 1.018299070687946017e-16 3.033770597342807186e-07
6.295000000000000137e-12 5.855111460395753757e-09 5.487150723824490656e-15 1.763710043904196507e-06
1.581000000000000150e-11 1.470523320212576141e-08 2.904239460150760759e-14 3.559434472327477622e-06
3.971999999999999958e-11 3.694456170323160790e-08 1.439340266754906811e-13 6.772854871245677111e-06
9.975999999999999982e-11 9.278976412613005154e-08 6.812143616221268841e-13 1.246890511177539320e-05
2.505999999999999928e-10 2.330928829758143313e-07 3.107749196951638608e-12 2.212095130576091967e-05
6.294000000000000186e-10 5.854398883216247602e-07 1.363250409771533549e-11 3.761981047239428883e-05
1.581000000000000021e-09 1.470619631082054101e-06 5.726014178088476303e-11 6.095350986710739404e-05
3.971999999999999932e-09 3.694861084648016046e-06 2.210019573374265380e-10 8.628023653304385055e-05
5.000000000000000105e-09 4.651201787816927976e-06 3.071485916280120014e-10 9.387863480799757518e-05
9.975999999999999465e-09 9.280587964640925786e-06 8.385361004129998845e-10 1.356922228656245837e-04
1.989999999999999952e-08 1.851419242998081003e-05 2.287763168863418088e-09 1.782101978513718314e-04
3.972999999999999908e-08 3.696699295748789187e-05 6.061583099087538954e-09 2.308134738384234820e-04
7.925999999999999637e-08 7.375765469301719828e-05 1.575347858094044765e-08 2.960532096713864875e-04
1.580999999999999930e-07 1.471491184379128891e-04 3.910429618672550719e-08 3.402859755131850544e-04
1.991000000000000027e-07 1.853209783927820692e-04 5.252045687899177454e-08 3.626488188833278743e-04
3.155999999999999938e-07 2.938002528823880299e-04 9.730770378831954314e-08 4.630767356912104081e-04
5.000999999999999849e-07 4.656344063839075714e-04 1.837494945860225819e-07 5.430301232045120323e-04
6.295999999999999732e-07 5.862651417037388971e-04 2.503103884558263872e-07 5.605192962670089638e-04
9.666999999999999941e-07 9.003386739730535665e-04 4.324450868778576936e-07 5.993081670211623108e-04
1.531999999999999901e-06 1.427170885631398036e-03 7.780217275717420968e-07 7.125938556504039095e-04
2.506999999999999883e-06 2.336134972129507662e-03 1.471005394641589826e-06 8.121876172121876309e-04
3.974000000000000407e-06 3.704315759716615697e-03 2.695705763844323844e-06 9.780674166779417152e-04
4.830000000000000343e-06 4.502887798316278223e-03 3.503988717694660908e-06 1.046253037768318664e-03
6.080999999999999885e-06 5.670217999231269741e-03 4.731126407333307547e-06 1.056224360839501646e-03
7.930000000000000308e-06 7.396012414119570652e-03 6.599662989063778187e-06 1.109203753630785610e-03
9.982000000000000313e-06 9.311815711689977113e-03 8.879881089227186733e-06 1.271216815433141075e-03
1.256999999999999993e-05 1.172874412604260098e-02 1.207676739913533738e-05 1.374195438212825332e-03
1.521999999999999997e-05 1.420427250933824909e-02 1.547541302213394990e-05 1.371610497379100249e-03
1.991000000000000080e-05 1.858690797761085312e-02 2.160710455847765458e-05 1.426578142835871997e-03
2.506999999999999883e-05 2.341050104039446925e-02 2.908031724375689851e-05 1.672007475975408053e-03
2.790999999999999875e-05 2.606604784714952258e-02 3.357009132255487721e-05 1.709425557744154774e-03
3.806999999999999973e-05 3.556967988784798945e-02 4.986781576435106434e-05 1.720407281314112165e-03
5.063000000000000145e-05 4.732434580343149871e-02 7.073400252905581275e-05 1.829889149838781265e-03
6.592000000000000583e-05 6.164112392498975052e-02 9.765037643900635188e-05 1.930242980462695823e-03
8.433000000000000066e-05 7.888776783401378612e-02 1.317235490470395893e-04 2.021055815200022837e-03
1.062000000000000064e-04 9.938561165478684845e-02 1.740088341640037047e-04 2.104789529260958983e-03
1.321000000000000126e-04 1.236720406455826121e-01 2.260189757651373944e-04 2.178291718403657477e-03
1.623999999999999901e-04 1.520974545104751274e-01 2.888169908545388338e-04 2.240170365918073281e-03
1.689999999999999879e-04 1.582907717069566844e-01 3.027354772999506964e-04 2.254509350360745651e-03
1.758999999999999930e-04 1.647661861691531171e-01 3.173785841705756782e-04 2.268169273277113179e-03
1.830000000000000029e-04 1.714298948183871907e-01 3.325196584577469103e-04 2.276170334580628063e-03
1.901999999999999882e-04 1.781880600978280049e-01 3.479577791899843742e-04 2.292561569242367037e-03
1.977000000000000079e-04 1.852284385240466902e-01 3.641242634600037713e-04 2.299943765467868384e-03
2.054000000000000053e-04 1.924572004474696396e-01 3.808304060475003897e-04 2.322187632288155723e-03
2.079000000000000119e-04 1.948043378760714872e-01 3.864137987380476553e-04 2.435429768083530178e-03
2.081999999999999921e-04 1.950859988578999005e-01 3.870314100985603909e-04 1.950065624557156818e-03
2.090999999999999868e-04 1.959309855029948977e-01 3.881261957135444685e-04 6.411875526909013856e-04
2.159999999999999919e-04 2.024093317906446865e-01 3.940874488768042125e-04 1.199166870571831411e-03
2.231000000000000019e-04 2.090756740932291913e-01 4.013938420547467825e-04 9.928616047829054436e-04
2.311000000000000066e-04 2.165873044433437034e-01 4.085241694843774404e-04 9.056166966301716637e-04
2.401000000000000085e-04 2.250381721984245909e-01 4.159700687886608468e-04 8.565463878902855599e-04
2.500000000000000052e-04 2.343344406330727658e-01 4.237602369176299592e-04 8.194318812157330018e-04
2.642999999999999733e-04 2.477629128650125634e-01 4.345596643180389446e-04 7.890063723638815647e-04
3.052999999999999941e-04 2.862671839140227270e-01 4.644058706720978241e-04 7.612775562167708662e-04
3.533000000000000224e-04 3.313503829113090826e-01 4.987577676308450197e-04 7.626578558207241024e-04
4.075999999999999871e-04 3.823564017794535141e-01 5.381334366106255759e-04 7.813048116943254948e-04
4.679999999999999915e-04 4.390986251953180042e-01 5.832692638200615834e-04 8.096035963157804938e-04
5.341000000000000261e-04 5.012024644415256081e-01 6.346556894078133086e-04 8.452514814113673558e-04
6.059000000000000366e-04 5.686690698184251325e-01 6.930641302632923034e-04 8.862253587289389486e-04
7.661000000000000275e-04 7.192254882508629654e-01 8.328184776562496576e-04 9.702780530519144065e-04
1.262000000000000101e-03 1.185459127778160093e+00 1.338484980802662205e-03 1.198863597978450275e-03
1.894999999999999983e-03 1.780909071169781921e+00 2.123481960401060308e-03 1.437771491635827115e-03
2.673000000000000029e-03 2.513147344746868850e+00 3.261860252001994032e-03 1.671524566936786766e-03
3.605999999999999830e-03 3.391736073717691369e+00 4.828136641022434151e-03 1.893900408978071038e-03
4.709999999999999777e-03 4.431905410739045870e+00 6.903512974832482635e-03 2.096551352830673849e-03
7.496000000000000059e-03 7.058993649504918366e+00 1.289742191321638018e-02 2.466596387205546859e-03
1.119999999999999989e-02 1.055540362104863661e+01 2.212077014004794340e-02 2.809304433764861584e-03
1.600000000000000033e-02 1.509117352747679952e+01 3.559566804390756900e-02 3.132325055719984222e-03
2.206999999999999934e-02 2.083310616724802244e+01 5.457322122755020599e-02 3.477840948757840792e-03
2.947999999999999926e-02 2.785007348564149154e+01 8.049103664263126956e-02 3.909302116317729670e-03
4.268000000000000266e-02 4.036707211535221518e+01 1.353887601042819133e-01 4.862066536253286525e-03
6.219999999999999835e-02 5.891246509830522626e+01 2.419691225623893105e-01 6.630786177272363080e-03
7.316999999999999893e-02 6.935151695866235855e+01 3.161896974764099033e-01 7.588671314871411888e-03
7.595999999999999974e-02 7.200836722020332559e+01 3.371250777904805096e-01 8.170805199905813859e-03
7.685877551020407761e-02 7.286441686894218606e+01 3.442179075121333254e-01 8.400256032732337716e-03
7.775755102040816935e-02 7.372055065838915766e+01 3.515162286860685770e-01 8.649220669217035085e-03
7.865632653061224722e-02 7.457677008602104252e+01 3.590365039781543421e-01 8.917001118567599235e-03
7.955510204081632508e-02 7.543307679985457526e+01 3.667946058091122175e-01 9.202899389991726908e-03
8.045387755102040295e-02 7.628947258667581366e+01 3.748058163461944203e-01 9.506217492697123517e-03
8.135265306122449469e-02 7.714595936079408034e+01 3.830848274968799427e-01 9.826257435891489270e-03
8.225142857142857256e-02 7.800253915329423648e+01 3.916457409003383794e-01 1.016232122878251397e-02
8.315020408163265042e-02 7.885921410175747326e+01 4.005020679128238892e-01 1.051371088057790303e-02
8.404897959183672829e-02 7.971598644042737192e+01 4.096667295835377809e-01 1.087972840048535318e-02
8.494775510204082003e-02 8.057285849079534046e+01 4.191520566178587037e-01 1.125967579771257332e-02
8.584653061224489790e-02 8.142983265258484948e+01 4.289697893251649963e-01 1.165285508146724457e-02
8.674530612244897576e-02 8.228691139511226993e+01 4.391310775487864415e-01 1.205856826095707754e-02
8.764408163265305363e-02 8.314409724900468746e+01 4.496464805759039507e-01 1.247611734538977071e-02
8.854285714285714537e-02 8.400139279825694416e+01 4.605259670254895354e-01 1.290480434397302777e-02
8.944163265306122323e-02 8.485880067260970350e+01 4.717789147126247862e-01 1.334393126591453503e-02
9.034040816326530110e-02 8.571632354023225275e+01 4.834141104877743844e-01 1.379280012042199965e-02
9.123918367346939284e-02 8.657396410069507908e+01 4.954397500498052276e-01 1.425071291670312011e-02
9.213795918367347071e-02 8.743172507821725503e+01 5.078634377317506887e-01 1.471697166396559661e-02
9.303673469387754857e-02 8.828960921517494853e+01 5.206921862585122129e-01 1.519087837141712589e-02
9.393551020408162644e-02 8.914761926585860863e+01 5.339324164758660896e-01 1.567173504826540470e-02
9.483428571428570431e-02 9.000575799046599457e+01 5.475899570503180991e-01 1.615884370371813497e-02
9.573306122448979605e-02 9.086402814932013428e+01 5.616700441395038323e-01 1.665150634698302212e-02
9.663183673469387391e-02 9.172243249730142622e+01 5.761773210329833583e-01 1.714902498726775595e-02
9.753061224489795178e-02 9.258097377848299914e+01 5.911158377634218031e-01 1.765070163378003668e-02
9.842938775510204352e-02 9.343965472096010672e+01 6.064890506882740784e-01 1.815583829572757490e-02
9.932816326530612139e-02 9.429847803186507349e+01 6.222998220422228943e-01 1.866373698231805350e-02
1.002269387755101993e-01 9.515744639255751736e+01 6.385504194607359851e-01 1.917369970275917962e-02
1.011257142857142910e-01 9.601656245398378076e+01 6.552425154752147263e-01 1.968502846625865346e-02
1.020244897959183689e-01 9.687582883219542396e+01 6.723771869803173429e-01 2.019702528202416830e-02
1.029232653061224467e-01 9.773524810402219032e+01 6.899549146741389416e-01 2.070899215926342435e-02
1.038220408163265246e-01 9.859482280289029177e+01 7.079755824720190827e-01 2.122023110718412528e-02
1.047208163265306025e-01 9.945455541478031591e+01 7.264384768948433102e-01 2.173004413499397131e-02
1.056195918367346942e-01 1.003144483743189852e+02 7.453422864327865494e-01 2.223773325190066263e-02
1.065183673469387721e-01 1.011745040609980180e+02 7.646851008855251042e-01 2.274260046711188907e-02
1.074171428571428499e-01 1.020347247955151744e+02 7.844644106800262584e-01 2.324394778983535081e-02
1.083159183673469417e-01 1.028951128362318883e+02 8.046771061670876524e-01 2.374107722927876196e-02
1.092146938775510195e-01 1.037556703757424401e+02 8.253194768978745488e-01 2.423329079464979496e-02
1.101134693877550974e-01 1.046163995375503220e+02 8.463872108817701578e-01 2.471989049515617431e-02
1.110122448979591891e-01 1.054773023728464807e+02 8.678753938269074819e-01 2.520017834000559676e-02
1.119110204081632531e-01 1.063383808573866105e+02 8.897785083648191984e-01 2.567345633840573821e-02
1.128097959183673449e-01 1.071996368884613418e+02 9.120904332607021603e-01 2.613902649956432317e-02
1.137085714285714227e-01 1.080610722819572231e+02 9.348044426108284011e-01 2.659619083268903797e-02
1.146073469387755006e-01 1.089226887695043331e+02 9.579132050287170186e-01 2.704425134698758976e-02
1.155061224489795924e-01 1.097844879957068542e+02 9.814087828217008536e-01 2.748251005166767180e-02
1.164048979591836702e-01 1.106464715154530296e+02 1.005282631159587936e+00 2.791026895593698778e-02
1.173036734693877481e-01 1.115086407913026108e+02 1.029525597237161971e+00 2.832683006900322056e-02
1.182024489795918398e-01 1.123709971909465679e+02 1.054127919432298777e+00 2.873149540007409464e-02
1.191012244897959177e-01 1.132335419847393325e+02 1.079079226461529650e+00 2.912356695835729287e-02
1.199999999999999956e-01 1.140962763432977312e+02 1.104368536534920953e+00 2.950234675306051893e-02
1.224933480352127513e-01 1.164906446629154146e+02 1.176204225657612179e+00 3.050127459915850589e-02
1.249866960704254931e-01 1.188864998309823022e+02 1.250467796668436105e+00 3.149184397068700153e-02
1.274800441056382627e-01 1.212838604440443220e+02 1.327141148498198753e+00 3.247270754942297583e-02
1.299733921408509907e-01 1.236827439856170088e+02 1.406202949505383382e+00 3.344253800328491483e-02
1.324667401760637464e-01 1.260831668285840692e+02 1.487628670894312277e+00 3.440002707781024405e-02
1.349600882112765021e-01 1.284851442380247875e+02 1.571390618026292207e+00 3.534388468819142648e-02
1.374534362464892578e-01 1.308886903743920698e+02 1.657457959653102275e+00 3.627283801480248038e-02
1.399467842817020136e-01 1.332938182969712955e+02 1.745796755107398734e+00 3.718563060482935750e-02
1.424401323169147693e-01 1.357005399675597062e+02 1.836369979489299586e+00 3.808102148232495737e-02
1.449334803521274972e-01 1.381088662543119199e+02 1.929137546892505606e+00 3.895778426874258599e-02
1.474268283873402530e-01 1.405188069357042195e+02 2.024056331716935109e+00 3.981470631575072944e-02
1.499201764225530087e-01 1.429303707045743295e+02 2.121080188117978604e+00 4.065058785190937135e-02
1.524135244577657644e-01 1.453435651722022897e+02 2.220159967645253474e+00 4.146424114457562815e-02
1.549068724929785201e-01 1.477583968723972419e+02 2.321243535126071844e+00 4.225448967821898022e-02
1.574002205281912758e-01 1.501748712655638940e+02 2.424275782850880301e+00 4.302016735015146143e-02
1.598935685634040316e-01 1.525929927427231121e+02 2.529198643119650480e+00 4.376011768452095496e-02
1.623869165986167595e-01 1.550127646294638453e+02 2.635951099209650206e+00 4.447319306527216382e-02
1.648802646338295153e-01 1.574341891898105246e+02 2.744469194826244962e+00 4.515825398865128820e-02
1.673736126690422710e-01 1.598572676299877742e+02 2.854686042099345844e+00 4.581416833571473612e-02
1.698669607042550267e-01 1.622820001020688778e+02 2.966531828188972764e+00 4.643981066519828338e-02
1.723603087394677824e-01 1.647083857074985076e+02 3.079933820564002112e+00 4.703406152701197079e-02
1.748536567746805104e-01 1.671364225004776074e+02 3.194816371018681878e+00 4.759580679654523000e-02
1.773470048098932939e-01 1.695661074912044057e+02 3.311100918491893808e+00 4.812393702989634092e-02
1.798403528451060218e-01 1.719974366489647650e+02 3.428705990754367328e+00 4.861734684008008761e-02
1.823337008803187775e-01 1.744304049050669221e+02 3.547547205029338180e+00 4.907493429421632553e-02
1.848270489155315333e-01 1.768650061556175217e+02 3.667537267612156704e+00 4.949560033165897877e-02
1.873203969507442890e-01 1.793012332641355613e+02 3.788585972554544767e+00 4.987824820299118639e-02
1.898137449859570447e-01 1.817390780640049854e+02 3.910600199479180805e+00 5.022178292978573405e-02
1.923070930211697727e-01 1.841785313607630030e+02 4.033483910590349275e+00 5.052511078500897257e-02
1.948004410563825561e-01 1.866195829342275658e+02 4.157138146946428137e+00 5.078713879393606523e-02
1.972937890915952841e-01 1.890622215404618771e+02 4.281461024059987075e+00 5.100677425543620469e-02
1.997871371268080398e-01 1.915064349135820407e+02 4.406347726891405081e+00 5.118292428348894529e-02
2.022804851620207955e-01 1.939522097674068277e+02 4.531690504301890243e+00 5.131449536879619661e-02
2.047738331972335235e-01 1.963995317969565235e+02 4.657378663032035959e+00 5.140039296036611610e-02
2.072671812324463070e-01 1.988483856798004865e+02 4.783298561272159688e+00 5.143952106696117466e-02
2.097605292676590349e-01 2.012987550772621432e+02 4.909333601890921273e+00 5.143078187832277048e-02
2.122538773028717907e-01 2.037506226354849730e+02 5.035364225389109549e+00 5.137307540611125989e-02
2.147472253380845464e-01 2.062039699863609883e+02 5.161267902645768402e+00 5.126529914452854220e-02
2.172405733732973021e-01 2.086587777483353250e+02 5.286919127524449813e+00 5.110634775062595364e-02
2.197339214085100578e-01 2.111150255270853506e+02 5.412189409407869967e+00 5.089511274433687615e-02
2.222272694437227858e-01 2.135726919160848354e+02 5.536947265729997625e+00 5.063048222831646045e-02
2.247206174789355693e-01 2.160317544970602910e+02 5.661058214575375835e+00 5.031134062771523002e-02
2.272139655141482972e-01 2.184921898403442810e+02 5.784384767416389295e+00 4.993656845006406303e-02
2.297073135493610530e-01 2.209539735051352807e+02 5.906786422060301689e+00 4.950504206549965341e-02
2.322006615845738087e-01 2.234170800396703385e+02 6.028119655878944272e+00 4.901563350761591747e-02
2.346940096197865644e-01 2.258814829813208291e+02 6.148237919395378448e+00 4.846721029528722191e-02
2.371873576549993201e-01 2.283471548566165836e+02 6.266991630303218486e+00 4.785863527587112809e-02
2.396807056902120481e-01 2.308140671812097366e+02 6.384228167995947167e+00 4.718876649026489817e-02
2.421740537254248038e-01 2.332821904597852836e+02 6.499791868685306007e+00 4.645645706035950867e-02
3.188643791595998089e-01 3.104106255333627473e+02 1.548851668078986066e+01 1.843514029002158716e-01
3.955547045937748418e-01 3.909141240549910208e+02 3.605127243995889330e+01 3.222463487400722970e-01
4.722450300279498192e-01 4.765348777599222103e+02 6.980150963492482674e+01 4.601412945799286391e-01
5.489353554621247966e-01 5.687465624307341159e+02 1.189421553847389248e+02 5.980362404197849813e-01
6.256256808962997740e-01 6.689509669775197835e+02 1.862447404209148090e+02 7.359311862596413789e-01
7.023160063304748624e-01 7.784391225508570642e+02 2.644402329098482483e+02 6.958486487548121158e-01
7.790063317646498398e-01 8.965056506481200813e+02 3.407958311499889987e+02 6.031545464778939047e-01
8.556966571988248171e-01 1.021769164618437799e+03 4.102879818553299174e+02 5.104604442009755827e-01
9.323869826329997945e-01 1.152872911234998355e+03 4.709444329125823288e+02 4.177663419240572606e-01
1.009077308067174883e+00 1.288538937229143812e+03 5.211985568652222582e+02 3.250722396471388831e-01
1.085767633501349971e+00 1.427580016408079700e+03 5.598642883009193838e+02 2.323781373702203945e-01
1.162457958935524838e+00 1.569131088141312375e+03 5.942481276365333542e+02 2.532651542412053258e-01
1.239148284369699926e+00 1.713195793970670820e+03 6.380844127512037858e+02 3.540802531899143735e-01
1.315838609803875014e+00 1.860416471117695437e+03 6.969925404409264047e+02 4.447478972721695678e-01
1.392528935238049881e+00 2.011486491845312457e+03 7.711635404862811356e+02 5.354155413544245956e-01
1.469219260672224969e+00 2.167062155174523468e+03 8.616793198579940736e+02 6.260831854366797344e-01
1.545909586106400058e+00 2.327779941751966362e+03 9.682189507698766420e+02 6.978123078724995931e-01
1.622599911540574924e+00 2.494150222502904853e+03 1.090323449331556731e+03 7.679904972139225405e-01
1.699290236974750012e+00 2.666663249122344041e+03 1.229060609921009018e+03 8.381686865553457100e-01
1.775980562408924879e+00 2.845819990372660413e+03 1.385732446332840937e+03 9.083468758967686574e-01
1.852670887843099967e+00 3.032127821641242463e+03 1.554967450821047805e+03 9.084180228245891664e-01
1.929361213277275056e+00 3.225563429224495849e+03 1.725660450876900768e+03 8.581789136539352825e-01
2.006051538711449922e+00 3.425705857452492637e+03 1.892236047580338663e+03 8.079398044832815096e-01
2.082741864145624788e+00 3.632121154927578573e+03 2.053680701519941977e+03 7.577006953126276256e-01
