# density  energy_density  pressure   sound_speed_squared  [All in nuclear units]
2.720000000000000022e-14 2.529924618736292620e-11 1.061056609100270887e-19 3.766610435412189122e-08
1.269999999999999890e-13 1.181251617980081254e-10 4.870113551826584858e-18 6.497781477172163475e-08
6.929999999999999754e-13 6.445728594625782745e-10 1.018299070687946017e-16 3.033770597342807186e-07
6.295000000000000137e-12 5.855111460395753757e-09 5.487150723824490656e-15 1.763710043904196507e-06
1.581000000000000150e-11 1.470523320212576141e-08 2.904239460150760759e-14 3.559434472327477622e-06
3.971999999999999958e-11 3.694456170323160790e-08 1.439340266754906811e-13 6.772854871245677111e-06
9.975999999999999982e-11 9.278976412613005154e-08 6.812143616221268841e-13 1.246890511177539320e-05
2.505999999999999928e-10 2.330928829758143313e-07 3.107749196951638608e-12 2.212095130576091967e-05
6.294000000000000186e-10 5.854398883216247602e-07 1.363250409771533549e-11 3.761981047239428883e-05
1.581000000000000021e-09 1.470619631082054101e-06 5.726014178088476303e-11 6.095350986710739404e-05
3.971999999999999932e-09 3.694861084648016046e-06 2.210019573374265380e-10 8.628023653304385055e-05
5.000000000000000105e-09 4.651201787816927976e-06 3.071485916280120014e-10 9.387863480799757518e-05
9.975999999999999465e-09 9.280587964640925786e-06 8.385361004129998845e-10 1.356922228656245837e-04
1.989999999999999952e-08 1.851419242998081003e-05 2.287763168863418088e-09 1.782101978513718314e-04
3.972999999999999908e-08 3.696699295748789187e-05 6.061583099087538954e-09 2.308134738384234820e-04
7.925999999999999637e-08 7.375765469301719828e-05 1.575347858094044765e-08 2.960532096713864875e-04
1.580999999999999930e-07 1.471491184379128891e-04 3.910429618672550719e-08 3.402859755131850544e-04
1.991000000000000027e-07 1.853209783927820692e-04 5.252045687899177454e-08 3.626488188833278743e-04
3.155999999999999938e-07 2.938002528823880299e-04 9.730770378831954314e-08 4.630767356912104081e-04
5.000999999999999849e-07 4.656344063839075714e-04 1.837494945860225819e-07 5.430301232045120323e-04
6.295999999999999732e-07 5.862651417037388971e-04 2.503103884558263872e-07 5.605192962670089638e-04
9.666999999999999941e-07 9.003386739730535665e-04 4.324450868778576936e-07 5.993081670211623108e-04
1.531999999999999901e-06 1.427170885631398036e-03 7.780217275717420968e-07 7.125938556504039095e-04
2.506999999999999883e-06 2.336134972129507662e-03 1.471005394641589826e-06 8.121876172121876309e-04
3.974000000000000407e-06 3.704315759716615697e-03 2.695705763844323844e-06 9.780674166779417152e-04
4.830000000000000343e-06 4.502887798316278223e-03 3.503988717694660908e-06 1.046253037768318664e-03
6.080999999999999885e-06 5.670217999231269741e-03 4.731126407333307547e-06 1.056224360839501646e-03
7.930000000000000308e-06 7.396012414119570652e-03 6.599662989063778187e-06 1.109203753630785610e-03
9.982000000000000313e-06 9.311815711689977113e-03 8.879881089227186733e-06 1.271216815433141075e-03
1.256999999999999993e-05 1.172874412604260098e-02 1.207676739913533738e-05 1.374195438212825332e-03
1.521999999999999997e-05 1.420427250933824909e-02 1.547541302213394990e-05 1.371610497379100249e-03
1.991000000000000080e-05 1.858690797761085312e-02 2.160710455847765458e-05 1.426578142835871997e-03
2.506999999999999883e-05 2.341050104039446925e-02 2.908031724375689851e-05 1.672007475975408053e-03
2.790999999999999875e-05 2.606604784714952258e-02 3.357009132255487721e-05 1.709425557744154774e-03
3.806999999999999973e-05 3.556967988784798945e-02 4.986781576435106434e-05 1.720407281314112165e-03
5.063000000000000145e-05 4.732434580343149871e-02 7.073400252905581275e-05 1.829889149838781265e-03
6.592000000000000583e-05 6.164112392498975052e-02 9.765037643900635188e-05 1.930242980462695823e-03
8.433000000000000066e-05 7.888776783401378612e-02 1.317235490470395893e-04 2.021055815200022837e-03
1.062000000000000064e-04 9.938561165478684845e-02 1.740088341640037047e-04 2.104789529260958983e-03
1.321000000000000126e-04 1.236720406455826121e-01 2.260189757651373944e-04 2.178291718403657477e-03
1.623999999999999901e-04 1.520974545104751274e-01 2.888169908545388338e-04 2.240170365918073281e-03
1.689999999999999879e-04 1.582907717069566844e-01 3.027354772999506964e-04 2.254509350360745651e-03
1.758999999999999930e-04 1.647661861691531171e-01 3.173785841705756782e-04 2.268169273277113179e-03
1.830000000000000029e-04 1.714298948183871907e-01 3.325196584577469103e-04 2.276170334580628063e-03
1.901999999999999882e-04 1.781880600978280049e-01 3.479577791899843742e-04 2.292561569242367037e-03
1.977000000000000079e-04 1.852284385240466902e-01 3.641242634600037713e-04 2.299943765467868384e-03
2.054000000000000053e-04 1.924572004474696396e-01 3.808304060475003897e-04 2.322187632288155723e-03
2.079000000000000119e-04 1.948043378760714872e-01 3.864137987380476553e-04 2.435429768083530178e-03
2.081999999999999921e-04 1.950859988578999005e-01 3.870314100985603909e-04 1.950065624557156818e-03
2.090999999999999868e-04 1.959309855029948977e-01 3.881261957135444685e-04 6.411875526909013856e-04
2.159999999999999919e-04 2.024093317906446865e-01 3.940874488768042125e-04 1.199166870571831411e-03
2.231000000000000019e-04 2.090756740932291913e-01 4.013938420547467825e-04 9.928616047829054436e-04
2.311000000000000066e-04 2.165873044433437034e-01 4.085241694843774404e-04 9.056166966301716637e-04
2.401000000000000085e-04 2.250381721984245909e-01 4.159700687886608468e-04 8.565463878902855599e-04
2.500000000000000052e-04 2.343344406330727658e-01 4.237602369176299592e-04 8.194318812157330018e-04
2.642999999999999733e-04 2.477629128650125634e-01 4.345596643180389446e-04 7.890063723638815647e-04
3.052999999999999941e-04 2.862671839140227270e-01 4.644058706720978241e-04 7.612775562167708662e-04
3.533000000000000224e-04 3.313503829113090826e-01 4.987577676308450197e-04 7.626578558207241024e-04
4.075999999999999871e-04 3.823564017794535141e-01 5.381334366106255759e-04 7.813048116943254948e-04
4.679999999999999915e-04 4.390986251953180042e-01 5.832692638200615834e-04 8.096035963157804938e-04
5.341000000000000261e-04 5.012024644415256081e-01 6.346556894078133086e-04 8.452514814113673558e-04
6.059000000000000366e-04 5.686690698184251325e-01 6.930641302632923034e-04 8.862253587289389486e-04
7.661000000000000275e-04 7.192254882508629654e-01 8.328184776562496576e-04 9.702780530519144065e-04
1.262000000000000101e-03 1.185459127778160093e+00 1.338484980802662205e-03 1.198863597978450275e-03
1.894999999999999983e-03 1.780909071169781921e+00 2.123481960401060308e-03 1.437771491635827115e-03
2.673000000000000029e-03 2.513147344746868850e+00 3.261860252001994032e-03 1.671524566936786766e-03
3.605999999999999830e-03 3.391736073717691369e+00 4.828136641022434151e-03 1.893900408978071038e-03
4.709999999999999777e-03 4.431905410739045870e+00 6.903512974832482635e-03 2.096551352830673849e-03
7.496000000000000059e-03 7.058993649504918366e+00 1.289742191321638018e-02 2.466596387205546859e-03
1.119999999999999989e-02 1.055540362104863661e+01 2.212077014004794340e-02 2.809304433764861584e-03
1.600000000000000033e-02 1.509117352747679952e+01 3.559566804390756900e-02 3.132325055719984222e-03
2.206999999999999934e-02 2.083310616724802244e+01 5.457322122755020599e-02 3.477840948757840792e-03
2.947999999999999926e-02 2.785007348564149154e+01 8.049103664263126956e-02 3.909302116317729670e-03
4.268000000000000266e-02 4.036707211535221518e+01 1.353887601042819133e-01 4.862066536253286525e-03
6.219999999999999835e-02 5.891246509830522626e+01 2.419691225623893105e-01 6.630786177272363080e-03
7.316999999999999893e-02 6.935151695866235855e+01 3.161896974764099033e-01 7.588671314871411888e-03
7.595999999999999974e-02 7.200836722020332559e+01 3.371250777904805096e-01 8.170805199905813859e-03
7.685877551020407761e-02 7.286441678248799292e+01 3.442031121329435783e-01 8.365692776491314916e-03
7.775755102040816935e-02 7.372055008459955161e+01 3.514474254054920088e-01 8.557629490124118998e-03
7.865632653061224722e-02 7.457676806715730322e+01 3.588556789345379028e-01 8.746959576448016388e-03
7.955510204081632508e-02 7.543307162423165835e+01 3.664258282377440556e-01 8.934027271106814716e-03
8.045387755102040295e-02 7.628946160824672518e+01 3.741561231370842955e-01 9.119176809744316409e-03
8.135265306122449469e-02 7.714593883466488933e+01 3.820451078784744547e-01 9.302752428004325627e-03
8.225142857142857256e-02 7.800250408646552103e+01 3.900916212574223607e-01 9.485098361530634389e-03
8.315020408163265042e-02 7.885915811842963308e+01 3.982947967502213915e-01 9.666558845967052060e-03
8.404897959183672829e-02 7.971590166124049404e+01 4.066540626502744837e-01 9.847478116957379332e-03
8.494775510204082003e-02 8.057273542541055633e+01 4.151691422092012029e-01 1.002820041014542037e-02
8.584653061224489790e-02 8.142966010504309793e+01 4.238400537824354442e-01 1.020906996117497065e-02
8.674530612244897576e-02 8.228667638143865304e+01 4.326671109790791725e-01 1.039043100568983781e-02
8.764408163265305363e-02 8.314378492655299624e+01 4.416509228158223554e-01 1.057262777933381907e-02
8.854285714285714537e-02 8.400098640631516389e+01 4.507923938747919190e-01 1.075600451775072380e-02
8.944163265306122323e-02 8.485828148381196456e+01 4.600927244652328052e-01 1.094090545658434575e-02
9.034040816326530110e-02 8.571567082234652446e+01 4.695534107889685616e-01 1.112767483147849082e-02
9.123918367346939284e-02 8.657315508837672269e+01 4.791762451096235886e-01 1.131665687807695969e-02
9.213795918367347071e-02 8.743073495433918652e+01 4.889633159256284167e-01 1.150819583202355133e-02
9.303673469387754857e-02 8.828841110136525572e+01 4.989170081470643558e-01 1.170263592896207336e-02
9.393551020408162644e-02 8.914618422189325031e+01 5.090400032764306193e-01 1.190032140453632821e-02
9.483428571428570431e-02 9.000405502218288234e+01 5.193352795934530475e-01 1.210159649439010790e-02
9.573306122448979605e-02 9.086202422473598972e+01 5.298061123440778175e-01 1.230680543416722700e-02
9.663183673469387391e-02 9.172009257062785537e+01 5.404560739338211128e-01 1.251629245951147926e-02
9.753061224489795178e-02 9.257826082175422755e+01 5.512890341256732052e-01 1.273040180606666710e-02
9.842938775510204352e-02 9.343652976299675572e+01 5.623091602427733315e-01 1.294947770947659643e-02
9.932816326530612139e-02 9.429490020431141772e+01 5.735209173760993373e-01 1.317386440538506273e-02
1.002269387755101993e-01 9.515337298274334898e+01 5.849290685974369852e-01 1.340390612943587363e-02
1.011257142857142910e-01 9.601194896437118587e+01 5.965386751779078178e-01 1.363994711727282982e-02
1.020244897959183689e-01 9.687062904618454695e+01 6.083550968123605518e-01 1.388233160453973200e-02
1.029232653061224467e-01 9.772941415789654229e+01 6.203839918499456374e-01 1.413140382688037738e-02
1.038220408163265246e-01 9.858830526369618497e+01 6.326313175312072712e-01 1.438750801993857707e-02
1.047208163265306025e-01 9.944730336394142967e+01 6.451033302320474672e-01 1.465098841935812482e-02
1.056195918367346942e-01 1.003064094967959363e+02 6.578065857149287821e-01 1.492218926078283173e-02
1.065183673469387721e-01 1.011656247398134383e+02 6.707479393876979445e-01 1.520145477985649154e-02
1.074171428571428499e-01 1.020249502114694451e+02 6.839345465704278482e-01 1.548912921222290670e-02
1.083159183673469417e-01 1.028843870726452394e+02 6.973738627706835835e-01 1.578555679352588309e-02
1.092146938775510195e-01 1.037439365280636281e+02 7.110736439676360598e-01 1.609108175940922314e-02
1.101134693877550974e-01 1.046035998276812222e+02 7.250419469054573129e-01 1.640604834551671887e-02
1.110122448979591891e-01 1.054633782680365073e+02 7.392871293964394797e-01 1.673080078749218658e-02
1.119110204081632531e-01 1.063232731935572843e+02 7.538178506342935181e-01 1.706568332097941135e-02
1.128097959183673449e-01 1.071832859978286194e+02 7.686430715180970763e-01 1.741104018162221295e-02
1.137085714285714227e-01 1.080434181248230345e+02 7.837720549873585796e-01 1.776721560506438341e-02
1.146073469387755006e-01 1.089036710700943758e+02 7.992143663686936961e-01 1.813455382694972168e-02
1.155061224489795924e-01 1.097640463819370211e+02 8.149798737345994581e-01 1.851339908292204406e-02
1.164048979591836702e-01 1.106245456625117640e+02 8.310787482748320798e-01 1.890409560862513216e-02
1.173036734693877481e-01 1.114851705689402905e+02 8.475214646809030583e-01 1.930698763970279536e-02
1.182024489795918398e-01 1.123459228143683788e+02 8.643188015442074823e-01 1.972241941179884300e-02
1.191012244897959177e-01 1.132068041690005913e+02 8.814818417683154550e-01 2.015073516055707406e-02
1.199999999999999956e-01 1.140678164611060339e+02 8.990219729959625372e-01 2.059227912162129095e-02
1.211321852191174636e-01 1.151526209022516127e+02 9.216712500351916804e-01 2.116501567531747091e-02
1.222643704382349317e-01 1.162376399789057047e+02 9.449511396454904899e-01 2.174641612696138690e-02
1.233965556573523997e-01 1.173228775880708525e+02 9.688713745243500153e-01 2.233647441483031446e-02
1.245287408764698678e-01 1.184083376445646820e+02 9.934416932598721939e-01 2.293518363197122323e-02
1.256609260955873220e-01 1.194940240805842961e+02 1.018671839645851396e+00 2.354253603218964611e-02
1.267931113147048039e-01 1.205799408452805181e+02 1.044571562002520437e+00 2.415852303593852418e-02
1.279252965338222581e-01 1.216660919043408740e+02 1.071150612502774546e+00 2.478313523611526056e-02
1.290574817529397400e-01 1.227524812395819112e+02 1.098418746503715626e+00 2.541636240377071268e-02
1.301896669720571942e-01 1.238391128485496608e+02 1.126385721883334634e+00 2.605819349373625013e-02
1.313218521911746761e-01 1.249259907441282422e+02 1.155061298382191515e+00 2.670861665017594186e-02
1.324540374102921303e-01 1.260131189541563543e+02 1.184455236949921941e+00 2.736761921206483719e-02
1.335862226294096122e-01 1.271005015210516262e+02 1.214577299096443186e+00 2.803518771860235431e-02
1.347184078485270664e-01 1.281881425014415186e+02 1.245437246247697027e+00 2.871130791456173725e-02
1.358505930676445206e-01 1.292760459658020693e+02 1.277044839105814678e+00 2.939596475558188191e-02
1.369827782867620025e-01 1.303642159981029067e+02 1.309409837013554068e+00 3.008914241340475068e-02
1.381149635058794845e-01 1.314526566954583586e+02 1.342541997322892922e+00 3.079082428106213326e-02
1.392471487249969386e-01 1.325413721677858803e+02 1.376451074767654603e+00 3.150099297801458448e-02
1.403793339441143928e-01 1.336303665374696834e+02 1.411146820840048166e+00 3.221963035524832292e-02
1.415115191632318747e-01 1.347196439390306750e+02 1.446638983171005810e+00 3.294671750032956287e-02
1.426437043823493289e-01 1.358092085188012277e+02 1.482937304914208720e+00 3.368223474242318383e-02
1.437758896014668109e-01 1.368990644346065153e+02 1.520051524133705589e+00 3.442616165727563349e-02
1.449080748205842650e-01 1.379892158554504817e+02 1.557991373194999030e+00 3.517847707216615466e-02
1.460402600397017470e-01 1.390796669612066125e+02 1.596766578159530159e+00 3.593915907082891742e-02
1.471724452588192011e-01 1.401704219423142774e+02 1.636386858182433013e+00 3.670818499834786752e-02
1.483046304779366831e-01 1.412614849994790518e+02 1.676861924913499502e+00 3.748553146602707359e-02
1.494368156970541373e-01 1.423528603433786373e+02 1.718201481901231897e+00 3.827117435623868941e-02
1.505690009161716192e-01 1.434445521943717381e+02 1.760415223999928891e+00 3.906508882725033549e-02
1.517011861352890734e-01 1.445365647822129915e+02 1.803512836779689321e+00 3.986724931803389133e-02
1.528333713544065553e-01 1.456289023457706833e+02 1.847503995939282495e+00 4.067762955305808531e-02
1.539655565735240095e-01 1.467215691327483853e+02 1.892398366721776082e+00 4.149620254706536115e-02
1.550977417926414637e-01 1.478145693994120506e+02 1.938205603332875837e+00 4.232294060983641387e-02
1.562299270117589456e-01 1.489079074103192966e+02 1.984935348361876128e+00 4.315781535094204840e-02
1.573621122308764275e-01 1.500015874380528658e+02 2.032597232205162641e+00 4.400079768448526135e-02
1.584942974499938817e-01 1.510956137629573846e+02 2.081200872492199316e+00 4.485185783383415642e-02
1.596264826691113359e-01 1.521899906728803842e+02 2.130755873513928034e+00 4.571096533634715076e-02
1.607586678882288178e-01 1.532847224629157097e+02 2.181271825653510632e+00 4.657808904809195710e-02
1.618908531073462720e-01 1.543798134351501972e+02 2.232758304819353778e+00 4.745319714855857074e-02
1.630230383264637539e-01 1.554752678984143301e+02 2.285224871880364717e+00 4.833625714536880086e-02
1.641552235455812081e-01 1.565710901680350275e+02 2.338681072103351077e+00 4.922723587898171493e-02
1.652874087646986900e-01 1.576672845655914728e+02 2.393136434592542994e+00 5.012609952739718183e-02
1.664195939838161442e-01 1.587638554186744102e+02 2.448600471731139372e+00 5.103281361085754836e-02
1.675517792029336261e-01 1.598608070606476872e+02 2.505082678624865000e+00 5.194734299654893417e-02
1.686839644220510803e-01 1.609581438304126948e+02 2.562592532547442126e+00 5.286965190330194381e-02
1.698161496411685345e-01 1.620558700721747130e+02 2.621139492387966730e+00 5.379970390629390531e-02
1.709483348602860164e-01 1.631539901352136610e+02 2.680732998100103792e+00 5.473746194175145574e-02
1.720805200794034984e-01 1.642525083736546776e+02 2.741382470153065132e+00 5.568288831165585373e-02
1.732127052985209525e-01 1.653514291462433619e+02 2.803097308984329405e+00 5.663594468845017937e-02
1.743448905176384067e-01 1.664507568161221798e+02 2.865886894454049649e+00 5.759659211974983706e-02
1.754770757367558887e-01 1.675504957506096559e+02 2.929760585301095954e+00 5.856479103305618078e-02
2.535285639870261676e-01 2.449127551860212861e+02 1.123334902681778402e+01 1.542820741784784455e-01
3.315800522372964743e-01 3.259572913630840389e+02 2.772317854972952844e+01 2.499993573239007172e-01
4.096315404875667809e-01 4.118736299806101329e+02 5.345623177337957088e+01 3.457166404693229889e-01
4.876830287378370876e-01 5.036144414771067659e+02 8.974279507556059343e+01 4.414339236147453160e-01
5.657345169881073943e-01 6.020521568382321220e+02 1.381296954930602965e+02 5.371512067601676987e-01
6.437860052383775900e-01 7.078487844308392596e+02 1.933722103806852033e+02 5.091560128841247090e-01
7.218374934886478966e-01 8.203704798641501839e+02 2.484733353104997491e+02 4.721748337041563603e-01
7.998889817389182033e-01 9.387871975978970340e+02 3.021060846236151747e+02 4.351936545241880117e-01
8.779404699891885100e-01 1.062340985531702472e+03 3.535157916797358553e+02 3.982124753442197185e-01
9.559919582394588167e-01 1.190346921151837250e+03 4.020601281590450071e+02 3.612312961642514253e-01
1.034043446489729234e+00 1.322183759844513361e+03 4.471949644244216415e+02 3.242501169842830766e-01
1.112094934739999319e+00 1.457286441270323849e+03 4.884625708673937652e+02 2.872689378043148389e-01
1.190146422990269626e+00 1.595139942127551421e+03 5.254815933029989310e+02 2.502877586243464902e-01
1.268197911240539932e+00 1.735274135122854204e+03 5.579384151745703093e+02 2.133065794443781971e-01
1.346249399490810239e+00 1.877259419998308431e+03 5.855796319879552811e+02 1.763254002644099039e-01
1.424300887741080546e+00 2.021394906169573460e+03 6.513926584011642262e+02 7.267705189857442960e-01
1.502352375991350852e+00 2.170765991219519947e+03 7.593060799217396379e+02 7.185252911968410539e-01
1.580403864241621159e+00 2.325819180691184101e+03 8.700483920951314758e+02 7.102800634079378117e-01
1.658455352491891466e+00 2.486408616762757447e+03 9.834228251164332733e+02 7.020348356190346806e-01
1.736506840742161772e+00 2.652393076189567182e+03 1.099239459495053097e+03 6.937896078301314384e-01
1.814558328992432079e+00 2.823635644227088505e+03 1.217314847003928662e+03 6.855443800412281963e-01
1.892609817242702386e+00 3.000003429327990489e+03 1.337471673128574366e+03 6.772991522523249541e-01
1.970661305492972692e+00 3.181367311762982354e+03 1.459538454321475228e+03 6.690539244634217120e-01
2.048712793743242777e+00 3.367601720707934874e+03 1.583349264706858776e+03 6.608086966745184698e-01
