# density  energy_density  pressure   sound_speed_squared  [All in nuclear units]
2.720000000000000022e-14 2.529924618736292620e-11 1.061056609100270887e-19 3.766610435412189122e-08
1.269999999999999890e-13 1.181251617980081254e-10 4.870113551826584858e-18 6.497781477172163475e-08
6.929999999999999754e-13 6.445728594625782745e-10 1.018299070687946017e-16 3.033770597342807186e-07
6.295000000000000137e-12 5.855111460395753757e-09 5.487150723824490656e-15 1.763710043904196507e-06
1.581000000000000150e-11 1.470523320212576141e-08 2.904239460150760759e-14 3.559434472327477622e-06
3.971999999999999958e-11 3.694456170323160790e-08 1.439340266754906811e-13 6.772854871245677111e-06
9.975999999999999982e-11 9.278976412613005154e-08 6.812143616221268841e-13 1.246890511177539320e-05
2.505999999999999928e-10 2.330928829758143313e-07 3.107749196951638608e-12 2.212095130576091967e-05
6.294000000000000186e-10 5.854398883216247602e-07 1.363250409771533549e-11 3.761981047239428883e-05
1.581000000000000021e-09 1.470619631082054101e-06 5.726014178088476303e-11 6.095350986710739404e-05
3.971999999999999932e-09 3.694861084648016046e-06 2.210019573374265380e-10 8.628023653304385055e-05
5.000000000000000105e-09 4.651201787816927976e-06 3.071485916280120014e-10 9.387863480799757518e-05
9.975999999999999465e-09 9.280587964640925786e-06 8.385361004129998845e-10 1.356922228656245837e-04
1.989999999999999952e-08 1.851419242998081003e-05 2.287763168863418088e-09 1.782101978513718314e-04
3.972999999999999908e-08 3.696699295748789187e-05 6.061583099087538954e-09 2.308134738384234820e-04
7.925999999999999637e-08 7.375765469301719828e-05 1.575347858094044765e-08 2.960532096713864875e-04
1.580999999999999930e-07 1.471491184379128891e-04 3.910429618672550719e-08 3.402859755131850544e-04
1.991000000000000027e-07 1.853209783927820692e-04 5.252045687899177454e-08 3.626488188833278743e-04
3.155999999999999938e-07 2.938002528823880299e-04 9.730770378831954314e-08 4.630767356912104081e-04
5.000999999999999849e-07 4.656344063839075714e-04 1.837494945860225819e-07 5.430301232045120323e-04
6.295999999999999732e-07 5.862651417037388971e-04 2.503103884558263872e-07 5.605192962670089638e-04
9.666999999999999941e-07 9.003386739730535665e-04 4.324450868778576936e-07 5.993081670211623108e-04
1.531999999999999901e-06 1.427170885631398036e-03 7.780217275717420968e-07 7.125938556504039095e-04
2.506999999999999883e-06 2.336134972129507662e-03 1.471005394641589826e-06 8.121876172121876309e-04
3.974000000000000407e-06 3.704315759716615697e-03 2.695705763844323844e-06 9.780674166779417152e-04
4.830000000000000343e-06 4.502887798316278223e-03 3.503988717694660908e-06 1.046253037768318664e-03
6.080999999999999885e-06 5.670217999231269741e-03 4.731126407333307547e-06 1.056224360839501646e-03
7.930000000000000308e-06 7.396012414119570652e-03 6.599662989063778187e-06 1.109203753630785610e-03
9.982000000000000313e-06 9.311815711689977113e-03 8.879881089227186733e-06 1.271216815433141075e-03
1.256999999999999993e-05 1.172874412604260098e-02 1.207676739913533738e-05 1.374195438212825332e-03
1.521999999999999997e-05 1.420427250933824909e-02 1.547541302213394990e-05 1.371610497379100249e-03
1.991000000000000080e-05 1.858690797761085312e-02 2.160710455847765458e-05 1.426578142835871997e-03
2.506999999999999883e-05 2.341050104039446925e-02 2.908031724375689851e-05 1.672007475975408053e-03
2.790999999999999875e-05 2.606604784714952258e-02 3.357009132255487721e-05 1.709425557744154774e-03
3.806999999999999973e-05 3.556967988784798945e-02 4.986781576435106434e-05 1.720407281314112165e-03
5.063000000000000145e-05 4.732434580343149871e-02 7.073400252905581275e-05 1.829889149838781265e-03
6.592000000000000583e-05 6.164112392498975052e-02 9.765037643900635188e-05 1.930242980462695823e-03
8.433000000000000066e-05 7.888776783401378612e-02 1.317235490470395893e-04 2.021055815200022837e-03
1.062000000000000064e-04 9.938561165478684845e-02 1.740088341640037047e-04 2.104789529260958983e-03
1.321000000000000126e-04 1.236720406455826121e-01 2.260189757651373944e-04 2.178291718403657477e-03
1.623999999999999901e-04 1.520974545104751274e-01 2.888169908545388338e-04 2.240170365918073281e-03
1.689999999999999879e-04 1.582907717069566844e-01 3.027354772999506964e-04 2.254509350360745651e-03
1.758999999999999930e-04 1.647661861691531171e-01 3.173785841705756782e-04 2.268169273277113179e-03
1.830000000000000029e-04 1.714298948183871907e-01 3.325196584577469103e-04 2.276170334580628063e-03
1.901999999999999882e-04 1.781880600978280049e-01 3.479577791899843742e-04 2.292561569242367037e-03
1.977000000000000079e-04 1.852284385240466902e-01 3.641242634600037713e-04 2.299943765467868384e-03
2.054000000000000053e-04 1.924572004474696396e-01 3.808304060475003897e-04 2.322187632288155723e-03
2.079000000000000119e-04 1.948043378760714872e-01 3.864137987380476553e-04 2.435429768083530178e-03
2.081999999999999921e-04 1.950859988578999005e-01 3.870314100985603909e-04 1.950065624557156818e-03
2.090999999999999868e-04 1.959309855029948977e-01 3.881261957135444685e-04 6.411875526909013856e-04
2.159999999999999919e-04 2.024093317906446865e-01 3.940874488768042125e-04 1.199166870571831411e-03
2.231000000000000019e-04 2.090756740932291913e-01 4.013938420547467825e-04 9.928616047829054436e-04
2.311000000000000066e-04 2.165873044433437034e-01 4.085241694843774404e-04 9.056166966301716637e-04
2.401000000000000085e-04 2.250381721984245909e-01 4.159700687886608468e-04 8.565463878902855599e-04
2.500000000000000052e-04 2.343344406330727658e-01 4.237602369176299592e-04 8.194318812157330018e-04
2.642999999999999733e-04 2.477629128650125634e-01 4.345596643180389446e-04 7.890063723638815647e-04
3.052999999999999941e-04 2.862671839140227270e-01 4.644058706720978241e-04 7.612775562167708662e-04
3.533000000000000224e-04 3.313503829113090826e-01 4.987577676308450197e-04 7.626578558207241024e-04
4.075999999999999871e-04 3.823564017794535141e-01 5.381334366106255759e-04 7.813048116943254948e-04
4.679999999999999915e-04 4.390986251953180042e-01 5.832692638200615834e-04 8.096035963157804938e-04
5.341000000000000261e-04 5.012024644415256081e-01 6.346556894078133086e-04 8.452514814113673558e-04
6.059000000000000366e-04 5.686690698184251325e-01 6.930641302632923034e-04 8.862253587289389486e-04
7.661000000000000275e-04 7.192254882508629654e-01 8.328184776562496576e-04 9.702780530519144065e-04
1.262000000000000101e-03 1.185459127778160093e+00 1.338484980802662205e-03 1.198863597978450275e-03
1.894999999999999983e-03 1.780909071169781921e+00 2.123481960401060308e-03 1.437771491635827115e-03
2.673000000000000029e-03 2.513147344746868850e+00 3.261860252001994032e-03 1.671524566936786766e-03
3.605999999999999830e-03 3.391736073717691369e+00 4.828136641022434151e-03 1.893900408978071038e-03
4.709999999999999777e-03 4.431905410739045870e+00 6.903512974832482635e-03 2.096551352830673849e-03
7.496000000000000059e-03 7.058993649504918366e+00 1.289742191321638018e-02 2.466596387205546859e-03
1.119999999999999989e-02 1.055540362104863661e+01 2.212077014004794340e-02 2.809304433764861584e-03
1.600000000000000033e-02 1.509117352747679952e+01 3.559566804390756900e-02 3.132325055719984222e-03
2.206999999999999934e-02 2.083310616724802244e+01 5.457322122755020599e-02 3.477840948757840792e-03
2.947999999999999926e-02 2.785007348564149154e+01 8.049103664263126956e-02 3.909302116317729670e-03
4.268000000000000266e-02 4.036707211535221518e+01 1.353887601042819133e-01 4.862066536253286525e-03
6.219999999999999835e-02 5.891246509830522626e+01 2.419691225623893105e-01 6.630786177272363080e-03
7.316999999999999893e-02 6.935151695866235855e+01 3.161896974764099033e-01 7.588671314871411888e-03
7.595999999999999974e-02 7.200836722020332559e+01 3.371250777904805096e-01 8.170805199905812125e-03
7.685877551020407761e-02 7.286441678767516805e+01 3.442039998249482591e-01 8.367766500435164234e-03
7.775755102040816935e-02 7.372055011861029072e+01 3.514514813998564913e-01 8.562956454946646367e-03
7.865632653061224722e-02 7.457676818491732718e+01 3.588660865045010251e-01 8.756467054137800562e-03
7.955510204081632508e-02 7.543307192032952457e+01 3.664464576904986615e-01 8.948390288706184470e-03
8.045387755102040295e-02 7.628946222258598198e+01 3.741913160841434105e-01 9.138818149349341863e-03
8.135265306122449469e-02 7.714593995551642536e+01 3.820994614013825674e-01 9.327842626764821718e-03
8.225142857142857256e-02 7.800250595103339890e+01 3.901697719652374441e-01 9.515555711650174747e-03
8.315020408163265042e-02 7.885916101103764220e+01 3.984012047255102162e-01 9.702049394702944723e-03
8.404897959183672829e-02 7.971590590924185449e+01 4.067927952806263403e-01 9.887415666620684093e-03
8.494775510204082003e-02 8.057274139291583026e+01 4.153436579014773145e-01 1.007174651810094530e-02
8.584653061224489790e-02 8.142966818455860789e+01 4.240529855571367190e-01 1.025513393984126866e-02
8.674530612244897576e-02 8.228668698350082877e+01 4.329200499423350723e-01 1.043766992253920660e-02
8.764408163265305363e-02 8.314379846744047597e+01 4.419442015065842000e-01 1.061944645689231331e-02
8.854285714285714537e-02 8.400100329391676723e+01 4.511248694848548069e-01 1.080055553359813084e-02
8.944163265306122323e-02 8.485830210172349553e+01 4.604615619297157125e-01 1.098108914335420815e-02
9.034040816326530110e-02 8.571569551226683359e+01 4.699538657448538159e-01 1.116113927685809422e-02
9.123918367346939284e-02 8.657318413086871089e+01 4.796014467198972953e-01 1.134079792480734150e-02
9.213795918367347071e-02 8.743076854801969944e+01 4.894040495664733759e-01 1.152015707789949550e-02
9.303673469387754857e-02 8.828844934058314209e+01 4.993614979554399924e-01 1.169930872683210520e-02
9.393551020408162644e-02 8.914622707295299620e+01 5.094736945552311713e-01 1.187834486230271956e-02
9.483428571428570431e-02 9.000410229816797880e+01 5.197406210712662844e-01 1.205735747500888584e-02
9.573306122448979605e-02 9.086207555898364774e+01 5.301623382863772660e-01 1.223643855564815995e-02
9.663183673469387391e-02 9.172014738890469232e+01 5.407389861022094957e-01 1.241568009491807872e-02
9.753061224489795178e-02 9.257831831317939475e+01 5.514707835815632064e-01 1.259517408351619808e-02
9.842938775510204352e-02 9.343658884975737067e+01 5.623580289916381147e-01 1.277501251214007046e-02
9.932816326530612139e-02 9.429495951021307576e+01 5.734010998481546828e-01 1.295528737148723269e-02
1.002269387755101993e-01 9.515343080063627212e+01 5.846004529603274769e-01 1.313609065225524418e-02
1.011257142857142910e-01 9.601200322249090391e+01 5.959566244766669740e-01 1.331751434514165389e-02
1.020244897959183689e-01 9.687067727344351908e+01 6.074702299315914988e-01 1.349965044084400212e-02
1.029232653061224467e-01 9.772945344816365321e+01 6.191419642928371880e-01 1.368259093005983959e-02
1.038220408163265246e-01 9.858833223909610410e+01 6.309726020096493304e-01 1.386642780348672048e-02
1.047208163265306025e-01 9.944731413720683122e+01 6.429629970617491974e-01 1.405125305182219203e-02
1.056195918367346942e-01 1.003063996327040002e+02 6.551140830090677047e-01 1.423715866576380495e-02
1.065183673469387721e-01 1.011655892157348262e+02 6.674268730422417972e-01 1.442423663600909782e-02
1.074171428571428499e-01 1.020248833770590977e+02 6.799024600338737789e-01 1.461257895325562654e-02
1.083159183673469417e-01 1.028842826087009428e+02 6.925420165905507019e-01 1.480227760820094357e-02
1.092146938775510195e-01 1.037437874045791659e+02 7.053467951056282548e-01 1.499342459154259094e-02
1.101134693877550974e-01 1.046033982611170927e+02 7.183181278127849234e-01 1.518611189397811763e-02
1.110122448979591891e-01 1.054631156778335850e+02 7.314574268403497559e-01 1.538043150620507782e-02
1.119110204081632531e-01 1.063229401579143882e+02 7.447661842664142773e-01 1.557647541892101528e-02
1.128097959183673449e-01 1.071828722087668524e+02 7.582459721747399906e-01 1.577433562282348073e-02
1.137085714285714227e-01 1.080429123425559794e+02 7.718984427114673474e-01 1.597410410861002314e-02
1.146073469387755006e-01 1.089030610767250238e+02 7.857253281426480607e-01 1.617587286697819149e-02
1.155061224489795924e-01 1.097633189344999778e+02 7.997284409126079741e-01 1.637973388862553129e-02
1.164048979591836702e-01 1.106236864453781834e+02 8.139096737031599194e-01 1.658577916424959151e-02
1.173036734693877481e-01 1.114841641456038275e+02 8.282709994936856557e-01 1.679410068454792460e-02
1.182024489795918398e-01 1.123447525786271513e+02 8.428144716221023236e-01 1.700479044021808300e-02
1.191012244897959177e-01 1.132054522955521918e+02 8.575422238467347302e-01 1.721794042195760530e-02
1.199999999999999956e-01 1.140662638555705115e+02 8.724564704091178902e-01 1.743364262046404392e-02
1.235357474992267168e-01 1.174537659611759608e+02 9.330055559775810581e-01 1.831468491331225690e-02
1.270714949984534381e-01 1.208430458053857279e+02 9.966983479254174494e-01 1.926995664388588686e-02
1.306072424976801594e-01 1.242341450102669000e+02 1.063796800997288239e+00 2.030308282421736804e-02
1.341429899969068806e-01 1.276271102100257053e+02 1.134575772276203320e+00 2.141766411156313318e-02
1.376787374961336019e-01 1.310219929944558146e+02 1.209323005079061986e+00 2.261727569763451531e-02
1.412144849953603232e-01 1.344188498577984774e+02 1.288339114090901072e+00 2.390546597709438878e-02
1.447502324945870722e-01 1.378177421523628539e+02 1.371937571297590308e+00 2.528575501598371786e-02
1.482859799938137657e-01 1.412187360463391599e+02 1.460444692333052297e+00 2.676163283828014022e-02
1.518217274930405147e-01 1.446219024853113524e+02 1.554199622905597655e+00 2.833655754683675129e-02
1.553574749922672082e-01 1.480273171570354123e+02 1.653554325010034187e+00 3.001395329341228699e-02
1.588932224914939573e-01 1.514350604591056992e+02 1.758873562669236001e+00 3.179720811130610364e-02
1.624289699907206785e-01 1.548452174691730363e+02 1.870534886981551903e+00 3.368967162318812353e-02
1.659647174899473998e-01 1.582578779174212968e+02 1.988928620279949877e+00 3.569465263602208949e-02
1.695004649891741211e-01 1.616731361610398210e+02 2.114457839235487135e+00 3.781541663449151242e-02
1.730362124884008423e-01 1.650910911604613602e+02 2.247538356762218914e+00 4.005518318386243337e-02
1.765719599876275636e-01 1.685118464571583274e+02 2.388598702603883517e+00 4.241712325337333028e-02
1.801077074868542849e-01 1.719355101528144871e+02 2.538080102504319147e+00 4.490435647052238438e-02
1.836434549860810062e-01 1.753621948897088600e+02 2.696436455884276828e+00 4.751994831720150053e-02
1.871792024853077274e-01 1.787920178321660671e+02 2.864134311967823532e+00 5.026690727833611066e-02
1.907149499845344487e-01 1.822251006489418046e+02 3.041652844321374172e+00 5.314818195392793931e-02
1.942506974837611700e-01 1.856615694964278305e+02 3.229483823788291019e+00 5.616665814555964198e-02
1.977864449829879190e-01 1.891015550025744005e+02 3.428131589822037029e+00 5.932515592864357618e-02
2.013221924822146125e-01 1.925451922514347984e+02 3.638113020241215523e+00 6.262642672195727067e-02
2.048579399814413615e-01 1.959926207682519816e+02 3.859957499450759499e+00 6.607315036630058425e-02
2.083936874806680550e-01 1.994439845050149813e+02 4.094206885195005974e+00 6.966793222442145550e-02
2.119294349798948041e-01 2.028994318264204537e+02 4.341415473930970492e+00 7.341330031469701922e-02
2.154651824791214976e-01 2.063591154961829659e+02 4.602149964933352599e+00 7.731170249139822370e-02
2.190009299783482466e-01 2.098231926636474896e+02 4.876989423267598767e+00 8.136550368472945938e-02
2.225366774775749679e-01 2.132918248506620102e+02 5.166525241792967904e+00 8.557698321419093812e-02
2.260724249768016891e-01 2.167651779386753503e+02 5.471361102385069231e+00 8.994833218917697160e-02
2.296081724760284104e-01 2.202434221560324659e+02 5.792112936595993133e+00 9.448165101107798558e-02
2.331439199752551317e-01 2.237267320654457876e+02 6.129408886000835999e+00 9.917894699150364701e-02
2.366796674744818529e-01 2.272152865516269742e+02 6.483889262511725704e+00 1.040421321015798650e-01
2.402154149737085742e-01 2.307092688090675097e+02 6.856206508974798552e+00 1.090730208675894930e-01
2.437511624729352955e-01 2.342088663299647919e+02 7.247025160401750377e+00 1.142733284284089962e-01
2.472869099721620167e-01 2.377142708922970087e+02 7.657021806227133354e+00 1.196446687712419826e-01
2.508226574713887658e-01 2.412256785480505812e+02 8.086885054021676567e+00 1.251885531600573642e-01
2.543584049706154593e-01 2.447432896116156940e+02 8.537315495136043708e+00 1.309063887751799882e-01
2.578941524698421528e-01 2.482673086483685836e+02 9.009025672796177275e+00 1.367994775788131667e-01
2.614298999690689018e-01 2.517979444634632955e+02 9.502740053217731742e+00 1.428690154236373633e-01
2.649656474682956508e-01 2.553354100908664464e+02 1.001919500035892518e+01 1.491160914209095079e-01
2.685013949675223444e-01 2.588799227826697802e+02 1.055913875498431231e+01 1.555416875845555269e-01
2.720371424667490934e-01 2.624317039987245153e+02 1.112333141876822040e+01 1.621466787677943999e-01
2.755728899659758424e-01 2.659909793966457414e+02 1.171254494422351478e+01 1.689318329074644687e-01
2.791086374652025359e-01 2.695579788222461843e+02 1.232756313130523473e+01 1.758978115943407583e-01
2.826443849644292294e-01 2.731329363004584252e+02 1.296918163160029813e+01 1.830451709816122707e-01
2.861801324636559785e-01 2.767160900268194723e+02 1.363820796107855671e+01 1.903743630487587102e-01
2.897158799628827275e-01 2.803076823595908991e+02 1.433546152245051708e+01 1.978857372339821730e-01
2.932516274621094210e-01 2.839079598126043038e+02 1.506177363824462567e+01 2.055795424485656608e-01
3.688995534322704328e-01 3.632903768806699532e+02 3.503605971473161418e+01 2.949679523402289338e-01
4.445474794024314447e-01 4.475980630526311757e+02 6.380719954872240862e+01 3.843563622318921791e-01
5.201954053725925675e-01 5.375872149959848230e+02 1.025831270046529795e+02 4.737447721235555909e-01
5.958433313427535793e-01 6.339811352172753232e+02 1.527587564874602890e+02 5.631331820152188916e-01
6.714912573129145912e-01 7.375075439150357397e+02 2.159266536968892751e+02 6.525215919068821924e-01
7.471391832830756030e-01 8.489203662172047871e+02 2.938937663491177545e+02 7.419100017985454931e-01
8.227871092532366148e-01 9.680597902680515290e+02 3.483852455417458600e+02 1.911549465478996623e-01
8.984350352233976267e-01 1.090011935613702462e+03 3.683833500584879630e+02 1.372980158875034273e-01
9.740829611935586385e-01 1.213384239446909760e+03 3.820756395801741974e+02 8.494349387665067752e-02
1.049730887163719650e+00 1.337682506393196036e+03 3.924627743623398146e+02 8.220466169485954322e-02
1.125378813133880662e+00 1.462756292736904925e+03 4.037003206864608842e+02 9.744455963668198495e-02
1.201026739104041674e+00 1.588651029511355773e+03 4.169305275903969346e+02 1.126844575785044267e-01
1.276674665074202686e+00 1.715808145997736119e+03 4.481361277014133293e+02 3.757268906015398535e-01
1.352322591044363698e+00 1.845725870992513592e+03 5.176948062284378693e+02 6.878620464956910485e-01
1.427970517014524710e+00 1.980557511115958960e+03 6.269212086131794877e+02 9.231075027624225937e-01
1.503618442984685721e+00 2.122063457156948516e+03 7.564872467448744828e+02 9.088434578543680420e-01
1.579266368954846733e+00 2.270190398839051340e+03 8.900060398640881658e+02 8.945794129463136013e-01
1.654914294925007745e+00 2.424803058374026477e+03 1.027168727602542049e+03 8.803153680382590496e-01
1.730562220895168757e+00 2.585764502003684811e+03 1.167670776865182233e+03 8.660513231302046089e-01
1.806210146865329769e+00 2.752936557087572510e+03 1.311212437057303077e+03 8.517872782221500572e-01
1.881858072835490781e+00 2.926180176697510433e+03 1.457499120764685131e+03 8.375232333140956165e-01
1.957505998805651792e+00 3.105355759517068691e+03 1.606241720955448955e+03 8.232591884060410647e-01
2.033153924775812804e+00 3.290323431421119039e+03 1.757156873807361535e+03 8.089951434979865130e-01
2.108801850745974260e+00 3.480943293994284886e+03 1.909967174714287012e+03 7.947310985899319613e-01
