# density  energy_density  pressure   sound_speed_squared  [All in nuclear units]
2.720000000000000022e-14 2.529924618736292620e-11 1.061056609100270887e-19 3.766610435412189122e-08
1.269999999999999890e-13 1.181251617980081254e-10 4.870113551826584858e-18 6.497781477172163475e-08
6.929999999999999754e-13 6.445728594625782745e-10 1.018299070687946017e-16 3.033770597342807186e-07
6.295000000000000137e-12 5.855111460395753757e-09 5.487150723824490656e-15 1.763710043904196507e-06
1.581000000000000150e-11 1.470523320212576141e-08 2.904239460150760759e-14 3.559434472327477622e-06
3.971999999999999958e-11 3.694456170323160790e-08 1.439340266754906811e-13 6.772854871245677111e-06
9.975999999999999982e-11 9.278976412613005154e-08 6.812143616221268841e-13 1.246890511177539320e-05
2.505999999999999928e-10 2.330928829758143313e-07 3.107749196951638608e-12 2.212095130576091967e-05
6.294000000000000186e-10 5.854398883216247602e-07 1.363250409771533549e-11 3.761981047239428883e-05
1.581000000000000021e-09 1.470619631082054101e-06 5.726014178088476303e-11 6.095350986710739404e-05
3.971999999999999932e-09 3.694861084648016046e-06 2.210019573374265380e-10 8.628023653304385055e-05
5.000000000000000105e-09 4.651201787816927976e-06 3.071485916280120014e-10 9.387863480799757518e-05
9.975999999999999465e-09 9.280587964640925786e-06 8.385361004129998845e-10 1.356922228656245837e-04
1.989999999999999952e-08 1.851419242998081003e-05 2.287763168863418088e-09 1.782101978513718314e-04
3.972999999999999908e-08 3.696699295748789187e-05 6.061583099087538954e-09 2.308134738384234820e-04
7.925999999999999637e-08 7.375765469301719828e-05 1.575347858094044765e-08 2.960532096713864875e-04
1.580999999999999930e-07 1.471491184379128891e-04 3.910429618672550719e-08 3.402859755131850544e-04
1.991000000000000027e-07 1.853209783927820692e-04 5.252045687899177454e-08 3.626488188833278743e-04
3.155999999999999938e-07 2.938002528823880299e-04 9.730770378831954314e-08 4.630767356912104081e-04
5.000999999999999849e-07 4.656344063839075714e-04 1.837494945860225819e-07 5.430301232045120323e-04
6.295999999999999732e-07 5.862651417037388971e-04 2.503103884558263872e-07 5.605192962670089638e-04
9.666999999999999941e-07 9.003386739730535665e-04 4.324450868778576936e-07 5.993081670211623108e-04
1.531999999999999901e-06 1.427170885631398036e-03 7.780217275717420968e-07 7.125938556504039095e-04
2.506999999999999883e-06 2.336134972129507662e-03 1.471005394641589826e-06 8.121876172121876309e-04
3.974000000000000407e-06 3.704315759716615697e-03 2.695705763844323844e-06 9.780674166779417152e-04
4.830000000000000343e-06 4.502887798316278223e-03 3.503988717694660908e-06 1.046253037768318664e-03
6.080999999999999885e-06 5.670217999231269741e-03 4.731126407333307547e-06 1.056224360839501646e-03
7.930000000000000308e-06 7.396012414119570652e-03 6.599662989063778187e-06 1.109203753630785610e-03
9.982000000000000313e-06 9.311815711689977113e-03 8.879881089227186733e-06 1.271216815433141075e-03
1.256999999999999993e-05 1.172874412604260098e-02 1.207676739913533738e-05 1.374195438212825332e-03
1.521999999999999997e-05 1.420427250933824909e-02 1.547541302213394990e-05 1.371610497379100249e-03
1.991000000000000080e-05 1.858690797761085312e-02 2.160710455847765458e-05 1.426578142835871997e-03
2.506999999999999883e-05 2.341050104039446925e-02 2.908031724375689851e-05 1.672007475975408053e-03
2.790999999999999875e-05 2.606604784714952258e-02 3.357009132255487721e-05 1.709425557744154774e-03
3.806999999999999973e-05 3.556967988784798945e-02 4.986781576435106434e-05 1.720407281314112165e-03
5.063000000000000145e-05 4.732434580343149871e-02 7.073400252905581275e-05 1.829889149838781265e-03
6.592000000000000583e-05 6.164112392498975052e-02 9.765037643900635188e-05 1.930242980462695823e-03
8.433000000000000066e-05 7.888776783401378612e-02 1.317235490470395893e-04 2.021055815200022837e-03
1.062000000000000064e-04 9.938561165478684845e-02 1.740088341640037047e-04 2.104789529260958983e-03
1.321000000000000126e-04 1.236720406455826121e-01 2.260189757651373944e-04 2.178291718403657477e-03
1.623999999999999901e-04 1.520974545104751274e-01 2.888169908545388338e-04 2.240170365918073281e-03
1.689999999999999879e-04 1.582907717069566844e-01 3.027354772999506964e-04 2.254509350360745651e-03
1.758999999999999930e-04 1.647661861691531171e-01 3.173785841705756782e-04 2.268169273277113179e-03
1.830000000000000029e-04 1.714298948183871907e-01 3.325196584577469103e-04 2.276170334580628063e-03
1.901999999999999882e-04 1.781880600978280049e-01 3.479577791899843742e-04 2.292561569242367037e-03
1.977000000000000079e-04 1.852284385240466902e-01 3.641242634600037713e-04 2.299943765467868384e-03
2.054000000000000053e-04 1.924572004474696396e-01 3.808304060475003897e-04 2.322187632288155723e-03
2.079000000000000119e-04 1.948043378760714872e-01 3.864137987380476553e-04 2.435429768083530178e-03
2.081999999999999921e-04 1.950859988578999005e-01 3.870314100985603909e-04 1.950065624557156818e-03
2.090999999999999868e-04 1.959309855029948977e-01 3.881261957135444685e-04 6.411875526909013856e-04
2.159999999999999919e-04 2.024093317906446865e-01 3.940874488768042125e-04 1.199166870571831411e-03
2.231000000000000019e-04 2.090756740932291913e-01 4.013938420547467825e-04 9.928616047829054436e-04
2.311000000000000066e-04 2.165873044433437034e-01 4.085241694843774404e-04 9.056166966301716637e-04
2.401000000000000085e-04 2.250381721984245909e-01 4.159700687886608468e-04 8.565463878902855599e-04
2.500000000000000052e-04 2.343344406330727658e-01 4.237602369176299592e-04 8.194318812157330018e-04
2.642999999999999733e-04 2.477629128650125634e-01 4.345596643180389446e-04 7.890063723638815647e-04
3.052999999999999941e-04 2.862671839140227270e-01 4.644058706720978241e-04 7.612775562167708662e-04
3.533000000000000224e-04 3.313503829113090826e-01 4.987577676308450197e-04 7.626578558207241024e-04
4.075999999999999871e-04 3.823564017794535141e-01 5.381334366106255759e-04 7.813048116943254948e-04
4.679999999999999915e-04 4.390986251953180042e-01 5.832692638200615834e-04 8.096035963157804938e-04
5.341000000000000261e-04 5.012024644415256081e-01 6.346556894078133086e-04 8.452514814113673558e-04
6.059000000000000366e-04 5.686690698184251325e-01 6.930641302632923034e-04 8.862253587289389486e-04
7.661000000000000275e-04 7.192254882508629654e-01 8.328184776562496576e-04 9.702780530519144065e-04
1.262000000000000101e-03 1.185459127778160093e+00 1.338484980802662205e-03 1.198863597978450275e-03
1.894999999999999983e-03 1.780909071169781921e+00 2.123481960401060308e-03 1.437771491635827115e-03
2.673000000000000029e-03 2.513147344746868850e+00 3.261860252001994032e-03 1.671524566936786766e-03
3.605999999999999830e-03 3.391736073717691369e+00 4.828136641022434151e-03 1.893900408978071038e-03
4.709999999999999777e-03 4.431905410739045870e+00 6.903512974832482635e-03 2.096551352830673849e-03
7.496000000000000059e-03 7.058993649504918366e+00 1.289742191321638018e-02 2.466596387205546859e-03
1.119999999999999989e-02 1.055540362104863661e+01 2.212077014004794340e-02 2.809304433764861584e-03
1.600000000000000033e-02 1.509117352747679952e+01 3.559566804390756900e-02 3.132325055719984222e-03
2.206999999999999934e-02 2.083310616724802244e+01 5.457322122755020599e-02 3.477840948757840792e-03
2.947999999999999926e-02 2.785007348564149154e+01 8.049103664263126956e-02 3.909302116317729670e-03
4.268000000000000266e-02 4.036707211535221518e+01 1.353887601042819133e-01 4.862066536253286525e-03
6.219999999999999835e-02 5.891246509830522626e+01 2.419691225623893105e-01 6.630786177272363080e-03
7.316999999999999893e-02 6.935151695866235855e+01 3.161896974764099033e-01 7.588671314871411888e-03
7.595999999999999974e-02 7.200836722020332559e+01 3.371250777904805096e-01 8.170805199905812125e-03
7.685877551020407761e-02 7.286441677845499498e+01 3.442024219555105402e-01 8.364080463333357224e-03
7.775755102040816935e-02 7.372055005753676937e+01 3.514441645900671651e-01 8.553237170108744791e-03
7.865632653061224722e-02 7.457676797058186935e+01 3.588469296269946041e-01 8.738533192120026202e-03
7.955510204081632508e-02 7.543307137252485006e+01 3.664075608023006358e-01 8.920226401255245893e-03
8.045387755102040295e-02 7.628946106455842369e+01 3.741231217206739679e-01 9.098574669402462178e-03
8.135265306122449469e-02 7.714593779839124466e+01 3.819908959273503046e-01 9.273835868449717759e-03
8.225142857142857256e-02 7.800250228031893585e+01 3.900083869857240426e-01 9.446267870285058807e-03
8.315020408163265042e-02 7.885915517511760697e+01 3.981733185601631919e-01 9.616128546796543636e-03
8.404897959183672829e-02 7.971589710976999754e+01 4.064836345035345855e-01 9.783675769872211478e-03
8.494775510204082003e-02 8.057272867703352404e+01 4.149374989490005605e-01 9.949167411400122382e-03
8.584653061224489790e-02 8.142965043885774890e+01 4.235332964056923721e-01 1.011286134326831558e-02
8.674530612244897576e-02 8.228666292966023832e+01 4.322696318579106189e-01 1.027501543736485112e-02
8.764408163265305363e-02 8.314376665946740275e+01 4.411453308675409302e-01 1.043588756557776477e-02
8.854285714285714537e-02 8.400096211692769543e+01 4.501594396794141861e-01 1.059573559979512178e-02
8.944163265306122323e-02 8.485824977220310927e+01 4.593112253293724079e-01 1.075481741190495444e-02
9.034040816326530110e-02 8.571563007974657467e+01 4.686001757548390878e-01 1.091339087379532453e-02
9.123918367346939284e-02 8.657310348096851271e+01 4.780259999077177135e-01 1.107171385735427824e-02
9.213795918367347071e-02 8.743067040680075763e+01 4.875886278694757103e-01 1.123004423446986345e-02
9.303673469387754857e-02 8.828833128016060527e+01 4.972882109682983387e-01 1.138863987703012462e-02
9.393551020408162644e-02 8.914608651832134001e+01 5.071251218982181230e-01 1.154775865692312005e-02
9.483428571428570431e-02 9.000393653519290638e+01 5.170999548401546964e-01 1.170765844603689418e-02
9.573306122448979605e-02 9.086188174351730140e+01 5.272135255848188207e-01 1.186859711625950185e-02
9.663183673469387391e-02 9.171992255698295082e+01 5.374668716574565464e-01 1.203083253947898404e-02
9.753061224489795178e-02 9.257805939226096825e+01 5.478612524444312903e-01 1.219462258758339038e-02
9.842938775510204352e-02 9.343629267096841318e+01 5.583981493216559899e-01 1.236022513246078092e-02
9.932816326530612139e-02 9.429462282155999731e+01 5.690792657849090830e-01 1.252789804599919489e-02
1.002269387755101993e-01 9.515305028115342623e+01 5.799065275820844967e-01 1.269789920008668194e-02
1.011257142857142910e-01 9.601157549728982588e+01 5.908820828474382614e-01 1.287048646661129690e-02
1.020244897959183689e-01 9.687019892963319023e+01 6.020083022379123516e-01 1.304591771746108596e-02
1.029232653061224467e-01 9.772892105161071186e+01 6.132877790716311228e-01 1.322445082452409527e-02
1.038220408163265246e-01 9.858774235199763325e+01 6.247233294686740379e-01 1.340634365968837623e-02
1.047208163265306025e-01 9.944666333644759959e+01 6.363179924942469201e-01 1.359185409484198540e-02
1.056195918367346942e-01 1.003056845289728471e+02 6.480750303043824045e-01 1.378124000187296375e-02
1.065183673469387721e-01 1.011648064733741421e+02 6.599979282943111425e-01 1.397475925266936092e-02
1.074171428571428499e-01 1.020240297346241789e+02 6.720903952496600775e-01 1.417266971911922482e-02
1.083159183673469417e-01 1.028833549002062995e+02 6.843563635006379986e-01 1.437522927311061377e-02
1.092146938775510195e-01 1.037427825814095286e+02 6.967999890793830087e-01 1.458269578653156873e-02
1.101134693877550974e-01 1.046023134145823832e+02 7.094256518806559830e-01 1.479532713127013760e-02
1.110122448979591891e-01 1.054619480623473180e+02 7.222379558260677568e-01 1.501338117921438217e-02
1.119110204081632531e-01 1.063216872147770857e+02 7.352417290320412135e-01 1.523711580225233300e-02
1.128097959183673449e-01 1.071815315905345045e+02 7.484420239817179965e-01 1.546678887227205708e-02
1.137085714285714227e-01 1.080414819379775224e+02 7.618441177010174536e-01 1.570265826116159363e-02
1.146073469387755006e-01 1.089015390362302611e+02 7.754535119390792985e-01 1.594498184080899231e-02
1.155061224489795924e-01 1.097617036962228667e+02 7.892759333533105881e-01 1.619401748310230621e-02
1.164048979591836702e-01 1.106219767616994005e+02 8.033173336992764924e-01 1.645002305992958672e-02
1.173036734693877481e-01 1.114823591101967253e+02 8.175838900256771069e-01 1.671325644317887132e-02
1.182024489795918398e-01 1.123428516539944297e+02 8.320820048746544462e-01 1.698397550473822529e-02
1.191012244897959177e-01 1.132034553410379942e+02 8.468183064876857458e-01 1.726243811649568263e-02
1.199999999999999956e-01 1.140641711558353677e+02 8.617996490173219781e-01 1.754890215033930514e-02
1.223983442457571014e-01 1.163615139128589675e+02 9.030245718118985465e-01 1.834019843852158216e-02
1.247966884915141933e-01 1.186596822905080018e+02 9.460771170972495092e-01 1.912651087532553015e-02
1.271950327372712852e-01 1.209586954424618455e+02 9.909462287606533026e-01 1.990673102474406139e-02
1.295933769830283910e-01 1.232585715680843634e+02 1.037618353614369937e+00 2.067978574458992705e-02
1.319917212287854968e-01 1.255593279198697161e+02 1.086077514758474472e+00 2.144463668773503515e-02
1.343900654745426027e-01 1.278609808116699043e+02 1.136305383855735984e+00 2.220027978816873152e-02
1.367884097202997085e-01 1.301635456276152354e+02 1.188281352313769856e+00 2.294574473504355436e-02
1.391867539660567865e-01 1.324670368316477322e+02 1.241982601374713058e+00 2.368009443770129063e-02
1.415850982118138923e-01 1.347714679775964441e+02 1.297384171117371698e+00 2.440242448450122975e-02
1.439834424575709981e-01 1.370768517197293193e+02 1.354459028381194807e+00 2.511186259812515920e-02
1.463817867033281039e-01 1.393831998237255334e+02 1.413178133625607735e+00 2.580756808988850584e-02
1.487801309490852097e-01 1.416905231780147574e+02 1.473510506742150561e+00 2.648873131545738044e-02
1.511784751948422878e-01 1.439988318054387548e+02 1.535423291840609217e+00 2.715457313424888067e-02
1.535768194405993936e-01 1.463081348751925361e+02 1.598881821033864226e+00 2.780434437467904293e-02
1.559751636863564994e-01 1.486184407150088873e+02 1.663849677249552350e+00 2.843732530731820501e-02
1.583735079321136052e-01 1.509297568235506901e+02 1.730288756099885417e+00 2.905282512791691751e-02
1.607718521778707110e-01 1.532420898829845726e+02 1.798159326844047667e+00 2.965018145217595408e-02
1.631701964236277891e-01 1.555554457717058483e+02 1.867420092480585714e+00 3.022875982405203235e-02
1.655685406693848949e-01 1.578698295771935989e+02 1.938028249010089077e+00 3.078795323931521680e-02
1.679668849151420007e-01 1.601852456089729060e+02 2.009939543911226867e+00 3.132718168600556741e-02
1.703652291608991065e-01 1.625016974116668393e+02 2.083108333875951068e+00 3.184589170337363828e-02
1.727635734066562123e-01 1.648191877781218011e+02 2.157487641852293248e+00 3.234355596083326317e-02
1.751619176524132904e-01 1.671377187625909357e+02 2.233029213445783423e+00 3.281967285840445975e-02
1.775602618981703962e-01 1.694572916939644358e+02 2.309683572733078893e+00 3.327376615007930638e-02
1.799586061439275020e-01 1.717779071890347495e+02 2.387400077543869070e+00 3.370538459150425326e-02
1.823569503896846078e-01 1.740995651657883911e+02 2.466126974269652994e+00 3.411410161333800622e-02
1.847552946354417136e-01 1.764222648567173621e+02 2.545811452260414054e+00 3.449951502161514166e-02
1.871536388811987917e-01 1.787460048221429076e+02 2.626399697872701555e+00 3.486124672642083172e-02
1.895519831269558975e-01 1.810707829635462929e+02 2.707836948235085472e+00 3.519894250016336601e-02
1.919503273727130033e-01 1.833965965369055198e+02 2.790067544799397670e+00 3.551227176671437752e-02
1.943486716184700813e-01 1.857234421660326689e+02 2.873034986748687736e+00 3.580092742267759753e-02
1.967470158642272149e-01 1.880513158559115823e+02 2.956681984335295610e+00 3.606462569203745805e-02
1.991453601099842929e-01 1.903802130060357740e+02 3.040950512224955826e+00 3.630310601543831200e-02
2.015437043557413987e-01 1.927101284237472782e+02 3.125781862925468335e+00 3.651613097534211344e-02
2.039420486014985046e-01 1.950410563375757818e+02 3.211116700380964861e+00 3.670348625831840877e-02
2.063403928472555826e-01 1.973729904105842650e+02 3.296895113815530021e+00 3.686498065572441085e-02
2.087387370930127162e-01 1.997059237537202989e+02 3.383056671912550328e+00 3.700044610404310680e-02
2.111370813387697942e-01 2.020398489391789667e+02 3.469540477418892710e+00 3.710973776615746761e-02
2.135354255845269000e-01 2.043747580137832642e+02 3.556285222265830104e+00 3.719273415485151169e-02
2.159337698302840058e-01 2.067106425123832878e+02 3.643229243301370879e+00 3.724933729984386543e-02
2.183321140760410839e-01 2.090474934712861170e+02 3.730310578731599325e+00 3.727947295967389690e-02
2.207304583217982175e-01 2.113853014417177576e+02 3.817467025371503286e+00 3.728309087977660363e-02
2.231288025675552955e-01 2.137240565033281428e+02 3.904636196808727977e+00 3.726016509809884636e-02
2.255271468133124013e-01 2.160637482777458445e+02 3.991755582586755224e+00 3.721069429962171882e-02
2.279254910590695071e-01 2.184043659421923849e+02 4.078762608516976584e+00 3.713470222117728342e-02
2.303238353048265852e-01 2.207458982431629124e+02 4.165594698232303550e+00 3.703223810794702836e-02
2.327221795505837187e-01 2.230883335101871694e+02 4.252189336098009420e+00 3.690337722305192525e-02
2.351205237963407968e-01 2.254316596696782540e+02 4.338484131598642435e+00 3.674822141164463263e-02
2.375188680420979026e-01 2.277758642588805174e+02 4.424416885323047666e+00 3.656689972092167645e-02
3.143041972657285577e-01 3.056045817838975154e+02 3.227891956577852284e+01 6.416324976557639115e-01
3.910895264893592405e-01 3.931201178655971376e+02 6.776875445187539526e+01 1.990903770721993427e-01
4.678748557129898678e-01 4.853979847883427396e+02 8.746588342525085125e+01 2.273948420328115727e-01
5.446601849366204950e-01 5.814761768116744634e+02 1.160480088612102634e+02 3.639118834950142434e-01
6.214455141602511778e-01 6.825306015359149114e+02 1.593960325567418863e+02 4.893928202367877622e-01
6.982308433838818607e-01 7.898346704588232114e+02 2.185542579202601132e+02 6.078426861318501073e-01
7.750161726075124324e-01 9.045447199928562441e+02 2.967011006326983420e+02 7.468652892074365557e-01
8.518015018311431152e-01 1.027896549271444201e+03 3.856221558137223155e+02 6.981135924257138026e-01
9.285868310547737980e-01 1.159243941335327463e+03 4.732200583303476833e+02 6.388757589704875395e-01
1.005372160278404481e+00 1.297707693779191686e+03 5.574035144225402973e+02 5.796379255152612764e-01
1.082157489502035164e+00 1.442430167642325159e+03 6.368554968933876808e+02 5.204000920600351243e-01
1.158942818725665846e+00 1.592588234241218743e+03 7.104280545993110536e+02 4.611622586048088612e-01
1.235728147949296529e+00 1.747397424783329825e+03 7.771360825614805208e+02 4.019244251495826536e-01
1.312513477172926990e+00 1.906114594454656981e+03 8.361492616385168049e+02 3.426865916943566126e-01
1.389298806396557673e+00 2.068039450466949802e+03 8.867828194184240829e+02 2.834487582391304050e-01
1.466084135620188356e+00 2.232515208134099339e+03 9.284875928142421344e+02 2.242109247839041419e-01
1.542869464843819038e+00 2.399063600115681766e+03 9.674517343165401826e+02 2.435706695342024219e-01
1.619654794067449721e+00 2.567707657704306257e+03 1.013890584578228982e+03 3.066515041054517776e-01
1.696440123291080404e+00 2.738812968094579446e+03 1.071810493133299815e+03 3.697323386767011333e-01
1.773225452514711087e+00 2.912798208151775270e+03 1.141690501850791406e+03 4.328131732479504334e-01
1.850010781738341548e+00 3.090067997402572473e+03 1.224082475371792270e+03 4.958940078191996226e-01
1.926796110961972230e+00 3.271017655230642958e+03 1.319610059603521904e+03 5.589748423904490338e-01
2.003581440185603135e+00 3.456037176340601491e+03 1.428968681657950128e+03 6.220556769616985004e-01
2.080366769409233818e+00 3.645514611405919823e+03 1.552926417005905705e+03 6.851365115329478561e-01
