# density  energy_density  pressure   sound_speed_squared  [All in nuclear units]
2.720000000000000022e-14 2.529924618736292620e-11 1.061056609100270887e-19 3.766610435412189122e-08
1.269999999999999890e-13 1.181251617980081254e-10 4.870113551826584858e-18 6.497781477172163475e-08
6.929999999999999754e-13 6.445728594625782745e-10 1.018299070687946017e-16 3.033770597342807186e-07
6.295000000000000137e-12 5.855111460395753757e-09 5.487150723824490656e-15 1.763710043904196507e-06
1.581000000000000150e-11 1.470523320212576141e-08 2.904239460150760759e-14 3.559434472327477622e-06
3.971999999999999958e-11 3.694456170323160790e-08 1.439340266754906811e-13 6.772854871245677111e-06
9.975999999999999982e-11 9.278976412613005154e-08 6.812143616221268841e-13 1.246890511177539320e-05
2.505999999999999928e-10 2.330928829758143313e-07 3.107749196951638608e-12 2.212095130576091967e-05
6.294000000000000186e-10 5.854398883216247602e-07 1.363250409771533549e-11 3.761981047239428883e-05
1.581000000000000021e-09 1.470619631082054101e-06 5.726014178088476303e-11 6.095350986710739404e-05
3.971999999999999932e-09 3.694861084648016046e-06 2.210019573374265380e-10 8.628023653304385055e-05
5.000000000000000105e-09 4.651201787816927976e-06 3.071485916280120014e-10 9.387863480799757518e-05
9.975999999999999465e-09 9.280587964640925786e-06 8.385361004129998845e-10 1.356922228656245837e-04
1.989999999999999952e-08 1.851419242998081003e-05 2.287763168863418088e-09 1.782101978513718314e-04
3.972999999999999908e-08 3.696699295748789187e-05 6.061583099087538954e-09 2.308134738384234820e-04
7.925999999999999637e-08 7.375765469301719828e-05 1.575347858094044765e-08 2.960532096713864875e-04
1.580999999999999930e-07 1.471491184379128891e-04 3.910429618672550719e-08 3.402859755131850544e-04
1.991000000000000027e-07 1.853209783927820692e-04 5.252045687899177454e-08 3.626488188833278743e-04
3.155999999999999938e-07 2.938002528823880299e-04 9.730770378831954314e-08 4.630767356912104081e-04
5.000999999999999849e-07 4.656344063839075714e-04 1.837494945860225819e-07 5.430301232045120323e-04
6.295999999999999732e-07 5.862651417037388971e-04 2.503103884558263872e-07 5.605192962670089638e-04
9.666999999999999941e-07 9.003386739730535665e-04 4.324450868778576936e-07 5.993081670211623108e-04
1.531999999999999901e-06 1.427170885631398036e-03 7.780217275717420968e-07 7.125938556504039095e-04
2.506999999999999883e-06 2.336134972129507662e-03 1.471005394641589826e-06 8.121876172121876309e-04
3.974000000000000407e-06 3.704315759716615697e-03 2.695705763844323844e-06 9.780674166779417152e-04
4.830000000000000343e-06 4.502887798316278223e-03 3.503988717694660908e-06 1.046253037768318664e-03
6.080999999999999885e-06 5.670217999231269741e-03 4.731126407333307547e-06 1.056224360839501646e-03
7.930000000000000308e-06 7.396012414119570652e-03 6.599662989063778187e-06 1.109203753630785610e-03
9.982000000000000313e-06 9.311815711689977113e-03 8.879881089227186733e-06 1.271216815433141075e-03
1.256999999999999993e-05 1.172874412604260098e-02 1.207676739913533738e-05 1.374195438212825332e-03
1.521999999999999997e-05 1.420427250933824909e-02 1.547541302213394990e-05 1.371610497379100249e-03
1.991000000000000080e-05 1.858690797761085312e-02 2.160710455847765458e-05 1.426578142835871997e-03
2.506999999999999883e-05 2.341050104039446925e-02 2.908031724375689851e-05 1.672007475975408053e-03
2.790999999999999875e-05 2.606604784714952258e-02 3.357009132255487721e-05 1.709425557744154774e-03
3.806999999999999973e-05 3.556967988784798945e-02 4.986781576435106434e-05 1.720407281314112165e-03
5.063000000000000145e-05 4.732434580343149871e-02 7.073400252905581275e-05 1.829889149838781265e-03
6.592000000000000583e-05 6.164112392498975052e-02 9.765037643900635188e-05 1.930242980462695823e-03
8.433000000000000066e-05 7.888776783401378612e-02 1.317235490470395893e-04 2.021055815200022837e-03
1.062000000000000064e-04 9.938561165478684845e-02 1.740088341640037047e-04 2.104789529260958983e-03
1.321000000000000126e-04 1.236720406455826121e-01 2.260189757651373944e-04 2.178291718403657477e-03
1.623999999999999901e-04 1.520974545104751274e-01 2.888169908545388338e-04 2.240170365918073281e-03
1.689999999999999879e-04 1.582907717069566844e-01 3.027354772999506964e-04 2.254509350360745651e-03
1.758999999999999930e-04 1.647661861691531171e-01 3.173785841705756782e-04 2.268169273277113179e-03
1.830000000000000029e-04 1.714298948183871907e-01 3.325196584577469103e-04 2.276170334580628063e-03
1.901999999999999882e-04 1.781880600978280049e-01 3.479577791899843742e-04 2.292561569242367037e-03
1.977000000000000079e-04 1.852284385240466902e-01 3.641242634600037713e-04 2.299943765467868384e-03
2.054000000000000053e-04 1.924572004474696396e-01 3.808304060475003897e-04 2.322187632288155723e-03
2.079000000000000119e-04 1.948043378760714872e-01 3.864137987380476553e-04 2.435429768083530178e-03
2.081999999999999921e-04 1.950859988578999005e-01 3.870314100985603909e-04 1.950065624557156818e-03
2.090999999999999868e-04 1.959309855029948977e-01 3.881261957135444685e-04 6.411875526909013856e-04
2.159999999999999919e-04 2.024093317906446865e-01 3.940874488768042125e-04 1.199166870571831411e-03
2.231000000000000019e-04 2.090756740932291913e-01 4.013938420547467825e-04 9.928616047829054436e-04
2.311000000000000066e-04 2.165873044433437034e-01 4.085241694843774404e-04 9.056166966301716637e-04
2.401000000000000085e-04 2.250381721984245909e-01 4.159700687886608468e-04 8.565463878902855599e-04
2.500000000000000052e-04 2.343344406330727658e-01 4.237602369176299592e-04 8.194318812157330018e-04
2.642999999999999733e-04 2.477629128650125634e-01 4.345596643180389446e-04 7.890063723638815647e-04
3.052999999999999941e-04 2.862671839140227270e-01 4.644058706720978241e-04 7.612775562167708662e-04
3.533000000000000224e-04 3.313503829113090826e-01 4.987577676308450197e-04 7.626578558207241024e-04
4.075999999999999871e-04 3.823564017794535141e-01 5.381334366106255759e-04 7.813048116943254948e-04
4.679999999999999915e-04 4.390986251953180042e-01 5.832692638200615834e-04 8.096035963157804938e-04
5.341000000000000261e-04 5.012024644415256081e-01 6.346556894078133086e-04 8.452514814113673558e-04
6.059000000000000366e-04 5.686690698184251325e-01 6.930641302632923034e-04 8.862253587289389486e-04
7.661000000000000275e-04 7.192254882508629654e-01 8.328184776562496576e-04 9.702780530519144065e-04
1.262000000000000101e-03 1.185459127778160093e+00 1.338484980802662205e-03 1.198863597978450275e-03
1.894999999999999983e-03 1.780909071169781921e+00 2.123481960401060308e-03 1.437771491635827115e-03
2.673000000000000029e-03 2.513147344746868850e+00 3.261860252001994032e-03 1.671524566936786766e-03
3.605999999999999830e-03 3.391736073717691369e+00 4.828136641022434151e-03 1.893900408978071038e-03
4.709999999999999777e-03 4.431905410739045870e+00 6.903512974832482635e-03 2.096551352830673849e-03
7.496000000000000059e-03 7.058993649504918366e+00 1.289742191321638018e-02 2.466596387205546859e-03
1.119999999999999989e-02 1.055540362104863661e+01 2.212077014004794340e-02 2.809304433764861584e-03
1.600000000000000033e-02 1.509117352747679952e+01 3.559566804390756900e-02 3.132325055719984222e-03
2.206999999999999934e-02 2.083310616724802244e+01 5.457322122755020599e-02 3.477840948757840792e-03
2.947999999999999926e-02 2.785007348564149154e+01 8.049103664263126956e-02 3.909302116317729670e-03
4.268000000000000266e-02 4.036707211535221518e+01 1.353887601042819133e-01 4.862066536253286525e-03
6.219999999999999835e-02 5.891246509830522626e+01 2.419691225623893105e-01 6.630786177272363080e-03
7.316999999999999893e-02 6.935151695866235855e+01 3.161896974764099033e-01 7.588671314871411888e-03
7.595999999999999974e-02 7.200836722020332559e+01 3.371250777904805096e-01 8.170805199905812125e-03
7.685877551020407761e-02 7.286441682044495849e+01 3.442096078499812806e-01 8.380867322217013665e-03
7.775755102040816935e-02 7.372055033605631991e+01 3.514775528095504531e-01 8.597655077821810682e-03
7.865632653061224722e-02 7.457676894979158533e+01 3.589345789641019135e-01 8.820845118821073541e-03
7.955510204081632508e-02 7.543307388056419427e+01 3.665860785032707403e-01 9.050114097315698630e-03
8.045387755102040295e-02 7.628946637912447670e+01 3.744371694387819693e-01 9.285138665406568459e-03
8.135265306122449469e-02 7.714594772392847233e+01 3.824926955266930162e-01 9.525595475194567271e-03
8.225142857142857256e-02 7.800251921718955828e+01 3.907572261841101846e-01 9.771161178780579312e-03
8.315020408163265042e-02 7.885918218110045075e+01 3.992350564000395341e-01 1.002151242826548709e-02
8.404897959183672829e-02 7.971593795421880202e+01 4.079302066400818938e-01 1.027632587575017832e-02
8.494775510204082003e-02 8.057278788800574887e+01 4.168464227447357118e-01 1.053527817333554245e-02
8.584653061224489790e-02 8.142973334350963910e+01 4.259871758211137283e-01 1.079804597312244985e-02
8.674530612244897576e-02 8.228677568818795862e+01 4.353556621279269789e-01 1.106430592721179516e-02
8.764408163265305363e-02 8.314391629285960050e+01 4.449548029536244953e-01 1.133373468770446438e-02
8.854285714285714537e-02 8.400115652878088213e+01 4.547872444876203124e-01 1.160600890670134520e-02
8.944163265306122323e-02 8.485849776483858875e+01 4.648553576845695368e-01 1.188080523630330974e-02
9.034040816326530110e-02 8.571594136485512649e+01 4.751612381216937520e-01 1.215780032861125438e-02
9.123918367346939284e-02 8.657348868499907724e+01 4.857067058491805756e-01 1.243667083572605643e-02
9.213795918367347071e-02 8.743114107129598267e+01 4.964933052337157093e-01 1.271709340974860533e-02
9.303673469387754857e-02 8.828889985723543532e+01 5.075223047952335254e-01 1.299874470277978186e-02
9.393551020408162644e-02 8.914676636146833744e+01 5.187946970369925470e-01 1.328130136692047200e-02
9.483428571428570431e-02 9.000474188559114452e+01 5.303111982691123272e-01 1.356444005427155999e-02
9.573306122448979605e-02 9.086282771201202024e+01 5.420722484257270990e-01 1.384783741693393876e-02
9.663183673469387391e-02 9.172102510189586155e+01 5.540780108759332245e-01 1.413117010700848386e-02
9.753061224489795178e-02 9.257933529318309240e+01 5.663283722287311139e-01 1.441411477659607955e-02
9.842938775510204352e-02 9.343775949868091857e+01 5.788229421321740009e-01 1.469634807779761874e-02
9.932816326530612139e-02 9.429629890422161509e+01 5.915610530669607181e-01 1.497754666271397181e-02
1.002269387755101993e-01 9.515495466688531678e+01 6.045417601347256031e-01 1.525738718344604034e-02
1.011257142857142910e-01 9.601372791328566336e+01 6.177638408412885473e-01 1.553554629209470510e-02
1.020244897959183689e-01 9.687261973791355274e+01 6.312257948751510694e-01 1.581170064076083820e-02
1.029232653061224467e-01 9.773163120153763828e+01 6.449258438815355099e-01 1.608552688154533256e-02
1.038220408163265246e-01 9.859076332965869938e+01 6.588619312322748778e-01 1.635670166654907762e-02
1.047208163265306025e-01 9.945001711101562591e+01 6.730317217918800887e-01 1.662490164787295069e-02
1.056195918367346942e-01 1.003093934961401033e+02 6.874326016801178829e-01 1.688980347761784295e-02
1.065183673469387721e-01 1.011688933959593015e+02 7.020616780314467009e-01 1.715108380788463865e-02
1.074171428571428499e-01 1.020285176804432581e+02 7.169157787516715619e-01 1.740841929077421163e-02
1.083159183673469417e-01 1.028882671772953188e+02 7.319914522721824301e-01 1.766148657838746000e-02
1.092146938775510195e-01 1.037481426706841319e+02 7.472849673021572103e-01 1.790996232282526107e-02
1.101134693877550974e-01 1.046081449000156454e+02 7.627923125791192804e-01 1.815352317618849909e-02
1.110122448979591891e-01 1.054682745587428627e+02 7.785091966182432488e-01 1.839184579057806870e-02
1.119110204081632531e-01 1.063285322932118504e+02 7.944310474608166084e-01 1.862460681809484028e-02
1.128097959183673449e-01 1.071889187015434572e+02 8.105530124222756205e-01 1.885148291083971195e-02
1.137085714285714227e-01 1.080494343325479178e+02 8.268699578402282091e-01 1.907215072091356101e-02
1.146073469387755006e-01 1.089100796846726098e+02 8.433764688229059558e-01 1.928628690041727170e-02
1.155061224489795924e-01 1.097708552049800375e+02 8.600668489984724108e-01 1.949356810145172827e-02
1.164048979591836702e-01 1.106317612881562127e+02 8.769351202656353594e-01 1.969367097611782191e-02
1.173036734693877481e-01 1.114927982755475284e+02 8.939750225460170174e-01 1.988627217651642992e-02
1.182024489795918398e-01 1.123539664542253576e+02 9.111800135387335686e-01 2.007104835474843654e-02
1.191012244897959177e-01 1.132152660560770556e+02 9.285432684776500079e-01 2.024767616291473643e-02
1.199999999999999956e-01 1.140766972569228983e+02 9.460576798917814667e-01 2.041583225311620689e-02
1.240362593092812771e-01 1.179468804661813977e+02 1.026411512885225363e+00 2.110856636515274706e-02
1.280725186185625586e-01 1.218197242079982345e+02 1.109580994839294288e+00 2.184133901509283798e-02
1.321087779278438123e-01 1.256952359709393932e+02 1.195733100993749742e+00 2.261819783447582138e-02
1.361450372371250939e-01 1.295734281392724085e+02 1.285051352335907948e+00 2.344338722154433105e-02
1.401812965464063754e-01 1.334543180603189114e+02 1.377736653626308705e+00 2.432135333365205085e-02
1.442175558556876291e-01 1.373379281285314732e+02 1.474008155921781693e+00 2.525674840819776973e-02
1.482538151649689107e-01 1.412242858846104525e+02 1.574104141747324048e+00 2.625443445472599308e-02
1.522900744742501922e-01 1.451134241282076118e+02 1.678282931269906131e+00 2.731948635199632491e-02
1.563263337835314737e-01 1.490053810429489545e+02 1.786823808002223846e+00 2.845719437631108115e-02
1.603625930928127552e-01 1.529002003326740464e+02 1.900027962716828833e+00 2.967306618093861273e-02
1.643988524020940090e-01 1.567979313679207394e+02 2.018219454384547973e+00 3.097282824088041023e-02
1.684351117113752905e-01 1.606986293418018477e+02 2.141746187068422014e+00 3.236242677235069004e-02
1.724713710206565720e-01 1.646023554345163120e+02 2.270980901807835739e+00 3.384802813204895039e-02
1.765076303299378258e-01 1.685091769858256328e+02 2.406322182619021977e+00 3.543601869752200512e-02
1.805438896392191073e-01 1.724191676748949078e+02 2.548195475819141187e+00 3.713300422655767263e-02
1.845801489485003888e-01 1.763324077069659950e+02 2.697054121953069927e+00 3.894580869057925887e-02
1.886164082577816703e-01 1.802489840063808515e+02 2.853380399665923051e+00 4.088147257437259319e-02
1.926526675670629518e-01 1.841689904155250019e+02 3.017686580921055128e+00 4.294725063214663990e-02
1.966889268763442056e-01 1.880925278993005065e+02 3.190515997013715133e+00 4.515060908788127297e-02
2.007251861856254871e-01 1.920197047547773082e+02 3.372444114875241983e+00 4.749922226613326193e-02
2.047614454949067686e-01 1.959506368257017073e+02 3.564079623202291991e+00 5.000096863794297603e-02
2.087977048041880224e-01 1.998854477215736551e+02 3.766065527980628325e+00 5.266392626520380316e-02
2.128339641134693039e-01 2.038242690410259570e+02 3.979080257003801524e+00 5.549636762581623695e-02
2.168702234227505854e-01 2.077672405992641984e+02 4.203838773014055619e+00 5.850675380115064050e-02
2.209064827320318669e-01 2.117145106593465300e+02 4.441093695116385298e+00 6.170372800679006092e-02
2.249427420413131484e-01 2.156662361670975656e+02 4.691636428136972903e+00 6.509610844721316902e-02
2.289790013505944022e-01 2.196225829894716242e+02 4.956298299614693370e+00 6.869288047502282446e-02
2.330152606598756837e-01 2.235837261561908065e+02 5.235951704129105266e+00 7.250318803552392721e-02
2.370515199691569652e-01 2.275498501044983186e+02 5.531511254680562040e+00 7.653632437791962895e-02
2.410877792784382190e-01 2.315211489268797607e+02 5.843934940848069637e+00 8.080172201513162455e-02
2.451240385877195005e-01 2.354978266216128588e+02 6.174225293458290409e+00 8.530894191526730563e-02
2.491602978970007820e-01 2.394800973460196190e+02 6.523430555504913464e+00 9.006766190906076441e-02
2.531965572062820913e-01 2.434681856722995121e+02 6.892645859061719449e+00 9.508766429921865215e-02
2.572328165155633450e-01 2.474623268458290966e+02 7.283014407934869539e+00 1.003788226595043742e-01
2.612690758248445988e-01 2.514627670458279738e+02 7.695728665800875667e+00 1.059510878136123019e-01
2.653053351341259081e-01 2.554697636482848964e+02 8.132031549575893692e+00 1.118144729864122416e-01
2.693415944434071618e-01 2.594835854910536455e+02 8.593217627760138200e+00 1.179790381229973845e-01
2.733778537526884156e-01 2.635045131410274166e+02 9.080634323498085081e+00 1.244548733741416141e-01
2.774141130619697249e-01 2.675328391633078695e+02 9.595683122090767014e+00 1.312520817502647319e-01
2.814503723712509786e-01 2.715688683922841733e+02 1.013982078269140708e+01 1.383807609498229063e-01
2.854866316805322324e-01 2.756129182045459061e+02 1.071456055390966711e+01 1.458509843721707555e-01
2.895228909898135417e-01 2.796653187935558549e+02 1.132147339304283307e+01 1.536727813293782552e-01
2.935591502990947954e-01 2.837264134460039031e+02 1.196218918864508396e+01 1.618561164762248039e-01
2.975954096083760492e-01 2.877965588197786246e+02 1.263839798613819632e+01 1.704108684826081133e-01
3.016316689176573584e-01 2.918761252234811536e+02 1.335185121615856119e+01 1.793468079778866298e-01
3.056679282269386122e-01 2.959654968974187454e+02 1.410436292532714653e+01 1.886735748022011494e-01
3.097041875362198660e-01 3.000650722960086796e+02 1.489781100912050604e+01 1.984006546055593345e-01
3.137404468455011752e-01 3.041752643715296358e+02 1.573413844651202709e+01 2.085373548413907985e-01
3.177767061547824290e-01 3.082965008591550600e+02 1.661535453604441059e+01 2.190927802073552033e-01
3.929241203148888806e-01 3.873720078016311277e+02 3.830389329756132355e+01 3.260377958804637211e-01
4.680715344749953877e-01 4.714988388765177092e+02 7.041062051740316008e+01 4.329828115535723221e-01
5.432189486351018948e-01 5.616554769370586655e+02 1.144974257919000280e+02 5.399278272266808676e-01
6.183663627952082908e-01 6.587827165741016415e+02 1.724202068704004773e+02 6.468728428997893021e-01
6.935137769553147979e-01 7.638346687315911367e+02 2.463481187697326220e+02 7.538178585728978476e-01
7.686611911154213050e-01 8.778100434240255936e+02 3.387945385291906177e+02 8.607628742460065041e-01
8.438086052755278121e-01 1.001100081557599765e+03 4.113211184119107884e+02 3.392562318209749184e-01
9.189560194356343192e-01 1.128794194974054335e+03 4.559596992296609415e+02 3.596129629644680969e-01
9.941034335957408263e-01 1.260300291967539579e+03 5.046081668800317175e+02 3.799696941079612200e-01
1.069250847755847333e+00 1.395639292174338152e+03 5.574299081162661196e+02 4.003264252514543431e-01
1.144398261915953618e+00 1.534840844526660931e+03 6.145931739775843425e+02 4.206831563949474662e-01
1.219545676076060126e+00 1.677941925787112496e+03 6.762711859637404359e+02 4.410398875384405892e-01
1.294693090236166633e+00 1.824985792873709670e+03 7.426422595188100786e+02 4.613966186819337678e-01
1.369840504396273140e+00 1.976021186747776710e+03 8.138899396977164997e+02 4.817533498254268909e-01
1.444987918556379647e+00 2.131101719202786171e+03 8.902031458908701325e+02 5.021100809689200695e-01
1.520135332716486154e+00 2.290285395266897467e+03 9.717763236789073744e+02 5.224668121124131925e-01
1.595282746876592661e+00 2.453634237928064067e+03 1.058809602623389537e+03 5.428235432559063156e-01
1.670430161036699168e+00 2.621307168507659298e+03 1.162256198214266760e+03 6.878483150597529683e-01
1.745577575196805675e+00 2.794143331188527554e+03 1.281138988181368177e+03 6.879010964710583487e-01
1.820724989356912182e+00 2.972175171589014553e+03 1.403605530450627612e+03 6.879538778823637291e-01
1.895872403517018467e+00 3.155335180346983634e+03 1.529609892977182881e+03 6.880066592936692205e-01
1.971019817677124975e+00 3.343559430792102376e+03 1.659108602572328437e+03 6.880594407049746009e-01
2.046167231837231260e+00 3.536787258366943206e+03 1.792060424346096625e+03 6.881122221162799812e-01
2.121314645997337767e+00 3.734960979594236051e+03 1.928426168417248618e+03 6.881650035275854727e-01
