# density  energy_density  pressure   sound_speed_squared  [All in nuclear units]
2.720000000000000022e-14 2.529924618736292620e-11 1.061056609100270887e-19 3.766610435412189122e-08
1.269999999999999890e-13 1.181251617980081254e-10 4.870113551826584858e-18 6.497781477172163475e-08
6.929999999999999754e-13 6.445728594625782745e-10 1.018299070687946017e-16 3.033770597342807186e-07
6.295000000000000137e-12 5.855111460395753757e-09 5.487150723824490656e-15 1.763710043904196507e-06
1.581000000000000150e-11 1.470523320212576141e-08 2.904239460150760759e-14 3.559434472327477622e-06
3.971999999999999958e-11 3.694456170323160790e-08 1.439340266754906811e-13 6.772854871245677111e-06
9.975999999999999982e-11 9.278976412613005154e-08 6.812143616221268841e-13 1.246890511177539320e-05
2.505999999999999928e-10 2.330928829758143313e-07 3.107749196951638608e-12 2.212095130576091967e-05
6.294000000000000186e-10 5.854398883216247602e-07 1.363250409771533549e-11 3.761981047239428883e-05
1.581000000000000021e-09 1.470619631082054101e-06 5.726014178088476303e-11 6.095350986710739404e-05
3.971999999999999932e-09 3.694861084648016046e-06 2.210019573374265380e-10 8.628023653304385055e-05
5.000000000000000105e-09 4.651201787816927976e-06 3.071485916280120014e-10 9.387863480799757518e-05
9.975999999999999465e-09 9.280587964640925786e-06 8.385361004129998845e-10 1.356922228656245837e-04
1.989999999999999952e-08 1.851419242998081003e-05 2.287763168863418088e-09 1.782101978513718314e-04
3.972999999999999908e-08 3.696699295748789187e-05 6.061583099087538954e-09 2.308134738384234820e-04
7.925999999999999637e-08 7.375765469301719828e-05 1.575347858094044765e-08 2.960532096713864875e-04
1.580999999999999930e-07 1.471491184379128891e-04 3.910429618672550719e-08 3.402859755131850544e-04
1.991000000000000027e-07 1.853209783927820692e-04 5.252045687899177454e-08 3.626488188833278743e-04
3.155999999999999938e-07 2.938002528823880299e-04 9.730770378831954314e-08 4.630767356912104081e-04
5.000999999999999849e-07 4.656344063839075714e-04 1.837494945860225819e-07 5.430301232045120323e-04
6.295999999999999732e-07 5.862651417037388971e-04 2.503103884558263872e-07 5.605192962670089638e-04
9.666999999999999941e-07 9.003386739730535665e-04 4.324450868778576936e-07 5.993081670211623108e-04
1.531999999999999901e-06 1.427170885631398036e-03 7.780217275717420968e-07 7.125938556504039095e-04
2.506999999999999883e-06 2.336134972129507662e-03 1.471005394641589826e-06 8.121876172121876309e-04
3.974000000000000407e-06 3.704315759716615697e-03 2.695705763844323844e-06 9.780674166779417152e-04
4.830000000000000343e-06 4.502887798316278223e-03 3.503988717694660908e-06 1.046253037768318664e-03
6.080999999999999885e-06 5.670217999231269741e-03 4.731126407333307547e-06 1.056224360839501646e-03
7.930000000000000308e-06 7.396012414119570652e-03 6.599662989063778187e-06 1.109203753630785610e-03
9.982000000000000313e-06 9.311815711689977113e-03 8.879881089227186733e-06 1.271216815433141075e-03
1.256999999999999993e-05 1.172874412604260098e-02 1.207676739913533738e-05 1.374195438212825332e-03
1.521999999999999997e-05 1.420427250933824909e-02 1.547541302213394990e-05 1.371610497379100249e-03
1.991000000000000080e-05 1.858690797761085312e-02 2.160710455847765458e-05 1.426578142835871997e-03
2.506999999999999883e-05 2.341050104039446925e-02 2.908031724375689851e-05 1.672007475975408053e-03
2.790999999999999875e-05 2.606604784714952258e-02 3.357009132255487721e-05 1.709425557744154774e-03
3.806999999999999973e-05 3.556967988784798945e-02 4.986781576435106434e-05 1.720407281314112165e-03
5.063000000000000145e-05 4.732434580343149871e-02 7.073400252905581275e-05 1.829889149838781265e-03
6.592000000000000583e-05 6.164112392498975052e-02 9.765037643900635188e-05 1.930242980462695823e-03
8.433000000000000066e-05 7.888776783401378612e-02 1.317235490470395893e-04 2.021055815200022837e-03
1.062000000000000064e-04 9.938561165478684845e-02 1.740088341640037047e-04 2.104789529260958983e-03
1.321000000000000126e-04 1.236720406455826121e-01 2.260189757651373944e-04 2.178291718403657477e-03
1.623999999999999901e-04 1.520974545104751274e-01 2.888169908545388338e-04 2.240170365918073281e-03
1.689999999999999879e-04 1.582907717069566844e-01 3.027354772999506964e-04 2.254509350360745651e-03
1.758999999999999930e-04 1.647661861691531171e-01 3.173785841705756782e-04 2.268169273277113179e-03
1.830000000000000029e-04 1.714298948183871907e-01 3.325196584577469103e-04 2.276170334580628063e-03
1.901999999999999882e-04 1.781880600978280049e-01 3.479577791899843742e-04 2.292561569242367037e-03
1.977000000000000079e-04 1.852284385240466902e-01 3.641242634600037713e-04 2.299943765467868384e-03
2.054000000000000053e-04 1.924572004474696396e-01 3.808304060475003897e-04 2.322187632288155723e-03
2.079000000000000119e-04 1.948043378760714872e-01 3.864137987380476553e-04 2.435429768083530178e-03
2.081999999999999921e-04 1.950859988578999005e-01 3.870314100985603909e-04 1.950065624557156818e-03
2.090999999999999868e-04 1.959309855029948977e-01 3.881261957135444685e-04 6.411875526909013856e-04
2.159999999999999919e-04 2.024093317906446865e-01 3.940874488768042125e-04 1.199166870571831411e-03
2.231000000000000019e-04 2.090756740932291913e-01 4.013938420547467825e-04 9.928616047829054436e-04
2.311000000000000066e-04 2.165873044433437034e-01 4.085241694843774404e-04 9.056166966301716637e-04
2.401000000000000085e-04 2.250381721984245909e-01 4.159700687886608468e-04 8.565463878902855599e-04
2.500000000000000052e-04 2.343344406330727658e-01 4.237602369176299592e-04 8.194318812157330018e-04
2.642999999999999733e-04 2.477629128650125634e-01 4.345596643180389446e-04 7.890063723638815647e-04
3.052999999999999941e-04 2.862671839140227270e-01 4.644058706720978241e-04 7.612775562167708662e-04
3.533000000000000224e-04 3.313503829113090826e-01 4.987577676308450197e-04 7.626578558207241024e-04
4.075999999999999871e-04 3.823564017794535141e-01 5.381334366106255759e-04 7.813048116943254948e-04
4.679999999999999915e-04 4.390986251953180042e-01 5.832692638200615834e-04 8.096035963157804938e-04
5.341000000000000261e-04 5.012024644415256081e-01 6.346556894078133086e-04 8.452514814113673558e-04
6.059000000000000366e-04 5.686690698184251325e-01 6.930641302632923034e-04 8.862253587289389486e-04
7.661000000000000275e-04 7.192254882508629654e-01 8.328184776562496576e-04 9.702780530519144065e-04
1.262000000000000101e-03 1.185459127778160093e+00 1.338484980802662205e-03 1.198863597978450275e-03
1.894999999999999983e-03 1.780909071169781921e+00 2.123481960401060308e-03 1.437771491635827115e-03
2.673000000000000029e-03 2.513147344746868850e+00 3.261860252001994032e-03 1.671524566936786766e-03
3.605999999999999830e-03 3.391736073717691369e+00 4.828136641022434151e-03 1.893900408978071038e-03
4.709999999999999777e-03 4.431905410739045870e+00 6.903512974832482635e-03 2.096551352830673849e-03
7.496000000000000059e-03 7.058993649504918366e+00 1.289742191321638018e-02 2.466596387205546859e-03
1.119999999999999989e-02 1.055540362104863661e+01 2.212077014004794340e-02 2.809304433764861584e-03
1.600000000000000033e-02 1.509117352747679952e+01 3.559566804390756900e-02 3.132325055719984222e-03
2.206999999999999934e-02 2.083310616724802244e+01 5.457322122755020599e-02 3.477840948757840792e-03
2.947999999999999926e-02 2.785007348564149154e+01 8.049103664263126956e-02 3.909302116317729670e-03
4.268000000000000266e-02 4.036707211535221518e+01 1.353887601042819133e-01 4.862066536253286525e-03
6.219999999999999835e-02 5.891246509830522626e+01 2.419691225623893105e-01 6.630786177272363080e-03
7.316999999999999893e-02 6.935151695866235855e+01 3.161896974764099033e-01 7.588671314871411888e-03
7.595999999999999974e-02 7.200836722020332559e+01 3.371250777904805096e-01 8.170805199905810390e-03
7.685877551020407761e-02 7.286441684669252083e+01 3.442140997554418713e-01 8.391360792625594117e-03
7.775755102040816935e-02 7.372055051043220431e+01 3.514984715468447707e-01 8.625532241505149203e-03
7.865632653061224722e-02 7.457676956412005609e+01 3.589896611933690584e-01 8.872758570833104430e-03
7.955510204081632508e-02 7.543307545788343305e+01 3.666986616268745336e-01 9.132478804898114602e-03
8.045387755102040295e-02 7.628946973060911318e+01 3.746359906159688058e-01 9.404131967988825849e-03
8.135265306122449469e-02 7.714595400165944739e+01 3.828116906950262410e-01 9.687157084393884302e-03
8.225142857142857256e-02 7.800252996295344587e+01 3.912353290865782651e-01 9.980993178401929150e-03
8.315020408163265042e-02 7.885919937139409797e+01 3.999159976152233953e-01 1.028507927430160826e-02
8.404897959183672829e-02 7.971596404162133354e+01 4.088623126114104833e-01 1.059885439638156776e-02
8.494775510204082003e-02 8.057282583907387163e+01 4.180824148036477728e-01 1.092175756893045725e-02
8.584653061224489790e-02 8.142978667334401166e+01 4.275839691978683965e-01 1.125322781623691072e-02
8.674530612244897576e-02 8.228684849180930883e+01 4.373741649428553036e-01 1.159270416258958124e-02
8.764408163265305363e-02 8.314401327352626936e+01 4.474597151807821471e-01 1.193962563227711146e-02
8.854285714285714537e-02 8.400128302337337516e+01 4.578468568820785456e-01 1.229343124958815446e-02
8.944163265306122323e-02 8.485865976643005126e+01 4.685413506639617975e-01 1.265356003881134422e-02
9.034040816326530110e-02 8.571614554257946850e+01 4.795484805921108040e-01 1.301945102423532862e-02
9.123918367346939284e-02 8.657374240132466525e+01 4.908730539650720814e-01 1.339054323014876070e-02
9.213795918367347071e-02 8.743145239680579550e+01 5.025194010811063761e-01 1.376627568084027274e-02
9.303673469387754857e-02 8.828927758301060180e+01 5.144913749872896958e-01 1.414608740059851953e-02
9.393551020408162644e-02 8.914722000916617617e+01 5.267923512107769435e-01 1.452941741371214374e-02
9.483428571428570431e-02 9.000528171530565658e+01 5.394252274722372009e-01 1.491570474446978628e-02
9.573306122448979605e-02 9.086346472799924356e+01 5.523924233815520335e-01 1.530438841716011064e-02
9.663183673469387391e-02 9.172177105624329840e+01 5.656958801159522876e-01 1.569490745607173693e-02
9.753061224489795178e-02 9.258020268749891102e+01 5.793370600808500637e-01 1.608670088549331995e-02
9.842938775510204352e-02 9.343876158387318753e+01 5.933169465536887177e-01 1.647920772971351450e-02
9.932816326530612139e-02 9.429744967843726045e+01 6.076360433112095727e-01 1.687186701302094763e-02
1.002269387755101993e-01 9.515626887167343284e+01 6.222943742405986356e-01 1.726411775970428109e-02
1.011257142857142910e-01 9.601522102804668179e+01 6.372914829350325716e-01 1.765539899405215579e-02
1.020244897959183689e-01 9.687430797269438187e+01 6.526264322742081347e-01 1.804514974035320921e-02
1.029232653061224467e-01 9.773353148822832281e+01 6.682978039904933221e-01 1.843280902289608919e-02
1.038220408163265246e-01 9.859289331164575287e+01 6.843036982213862585e-01 1.881781586596944708e-02
1.047208163265306025e-01 9.945239513134188769e+01 7.006417330490229967e-01 1.919960929386192727e-02
1.056195918367346942e-01 1.003120385842226057e+02 7.173090440275196045e-01 1.957762833086217416e-02
1.065183673469387721e-01 1.011718252529101534e+02 7.343022836989784308e-01 1.995131200125882520e-02
1.074171428571428499e-01 1.020317566630394026e+02 7.516176210990342943e-01 2.032009932934053520e-02
1.083159183673469417e-01 1.028918342806407793e+02 7.692507412528499788e-01 2.068342933939594508e-02
1.092146938775510195e-01 1.037520595096052602e+02 7.871968446625153826e-01 2.104074105571369924e-02
1.101134693877550974e-01 1.046124336892290358e+02 8.054506467868406405e-01 2.139147350258244207e-02
1.110122448979591891e-01 1.054729580918338314e+02 8.240063775145625158e-01 2.173506570429083185e-02
1.119110204081632531e-01 1.063336339204597749e+02 8.428577806320223242e-01 2.207095668512749215e-02
1.128097959183673449e-01 1.071944623066287505e+02 8.619981132864089624e-01 2.239858546938108819e-02
1.137085714285714227e-01 1.080554443081740459e+02 8.814201454456740414e-01 2.271739108134025048e-02
1.146073469387755006e-01 1.089165809071348860e+02 9.011161593562818650e-01 2.302681254529362689e-02
1.155061224489795924e-01 1.097778730077119747e+02 9.210779489999580960e-01 2.332628888552987223e-02
1.164048979591836702e-01 1.106393214342837581e+02 9.412968195506437041e-01 2.361525912633762048e-02
1.173036734693877481e-01 1.115009269294784673e+02 9.617635868328848758e-01 2.389316229200552644e-02
1.182024489795918398e-01 1.123626901523014254e+02 9.824685767829053340e-01 2.415943740682222757e-02
1.191012244897959177e-01 1.132246116763159449e+02 1.003401624913638601e+00 2.441352349507636826e-02
1.199999999999999956e-01 1.140866919878742749e+02 1.024552075785021499e+00 2.465485958105660333e-02
1.228138399690827387e-01 1.167866822985880759e+02 1.092064908423145075e+00 2.535467362624400228e-02
1.256276799381654818e-01 1.194882416679623560e+02 1.161523412188129711e+00 2.606621593890307009e-02
1.284415199072482250e-01 1.221913789187980655e+02 1.232962355445127667e+00 2.678994332374716805e-02
1.312553598763309681e-01 1.248961032641022797e+02 1.306417889817134359e+00 2.752635806910972219e-02
1.340691998454137113e-01 1.276024243130287203e+02 1.381927680220529364e+00 2.827600936710097587e-02
1.368830398144964544e-01 1.303103520790932066e+02 1.459531039214415404e+00 2.903949467074091670e-02
1.396968797835791976e-01 1.330198969905193565e+02 1.539269065531996272e+00 2.981746099331999619e-02
1.425107197526619407e-01 1.357310699025818224e+02 1.621184786676514777e+00 3.061060615471269258e-02
1.453245597217446838e-01 1.384438821118291401e+02 1.705323305477359996e+00 3.141967997888985009e-02
1.481383996908274270e-01 1.411583453720810439e+02 1.791731950513980376e+00 3.224548544644731396e-02
1.509522396599101701e-01 1.438744719121024787e+02 1.880460430326321042e+00 3.308887980557407432e-02
1.537660796289929133e-01 1.465922744548696528e+02 1.971560991340737257e+00 3.395077564451925295e-02
1.565799195980756564e-01 1.493117662383486390e+02 2.065088579449806616e+00 3.483214192828311406e-02
1.593937595671583995e-01 1.520329610377162624e+02 2.161101005193232449e+00 3.573400500194191115e-02
1.622075995362411427e-01 1.547558731889600665e+02 2.259659112495171041e+00 3.665744956272148219e-02
1.650214395053238858e-01 1.574805176137959961e+02 2.360826950920870804e+00 3.760361960265441034e-02
1.678352794744066290e-01 1.602069098458556198e+02 2.464671951422523932e+00 3.857371932338929388e-02
1.706491194434893721e-01 1.629350660580905128e+02 2.571265105550741392e+00 3.956901402446428434e-02
1.734629594125721153e-01 1.656650030913530429e+02 2.680681148114109735e+00 4.059083096610958258e-02
1.762767993816548584e-01 1.683967384841132287e+02 2.792998743274880624e+00 4.164056020740538461e-02
1.790906393507376015e-01 1.711302905032749777e+02 2.908300674074027814e+00 4.271965542038611008e-02
1.819044793198203447e-01 1.738656781760605270e+02 3.026674035383679850e+00 4.382963468045388000e-02
1.847183192889030878e-01 1.766029213229320192e+02 3.148210430289332340e+00 4.497208123323746115e-02
1.875321592579858310e-01 1.793420405915251195e+02 3.273006169908264429e+00 4.614864423781032260e-02
1.903459992270685741e-01 1.820830574915682973e+02 3.401162476654241207e+00 4.736103948595923180e-02
1.931598391961513173e-01 1.848259944307681337e+02 3.532785690961890879e+00 4.861105009697479912e-02
1.959736791652340604e-01 1.875708747516382005e+02 3.667987481487101853e+00 4.990052718721405683e-02
1.987875191343168035e-01 1.903177227692568465e+02 3.806885058802398802e+00 5.123139051346538297e-02
2.016013591033995467e-01 1.930665638099344221e+02 3.949601392608523831e+00 5.260562908892386924e-02
2.044151990724822898e-01 1.958174242507786573e+02 4.096265432485382441e+00 5.402530177036236891e-02
2.072290390415650330e-01 1.985703315601432450e+02 4.247012332207090068e+00 5.549253781486034737e-02
2.100428790106477761e-01 2.013253143389480613e+02 4.401983677647105964e+00 5.700953740422506216e-02
2.128567189797305192e-01 2.040824023628631210e+02 4.561327718300317358e+00 5.857857213501311416e-02
2.156705589488132624e-01 2.068416266253438494e+02 4.725199602449480452e+00 6.020198547182951249e-02
2.184843989178960055e-01 2.096030193815126950e+02 4.893761616003598824e+00 6.188219316134987297e-02
2.212982388869787487e-01 2.123666141928785294e+02 5.067183425035626243e+00 6.362168360427714053e-02
2.241120788560614918e-01 2.151324459728872682e+02 5.245642322046310646e+00 6.542301818220856713e-02
2.269259188251442350e-01 2.179005510332999336e+02 5.429323475980055491e+00 6.728883153615076995e-02
2.297397587942269781e-01 2.206709671313925867e+02 5.618420186017338835e+00 6.922183179318260049e-02
2.325535987633097212e-01 2.234437335179731292e+02 5.813134139166473702e+00 7.122480073752501806e-02
2.353674387323924644e-01 2.262188909862139212e+02 6.013675671675376755e+00 7.330059392203734647e-02
2.381812787014752075e-01 2.289964819212948441e+02 6.220264034281422383e+00 7.545214071591942184e-02
2.409951186705579507e-01 2.317765503508565814e+02 6.433127661314485657e+00 7.768244428416025416e-02
2.438089586396406938e-01 2.345591419962581767e+02 6.652504443664851941e+00 7.999458149403546048e-02
2.466227986087234370e-01 2.373443043246423372e+02 6.878642005623795797e+00 8.239170274372234481e-02
2.494366385778061801e-01 2.401320866018010349e+02 7.111797985600324168e+00 8.487703170786900508e-02
2.522504785468889232e-01 2.429225399458441359e+02 7.352240320712787991e+00 8.745386499472901365e-02
2.550643185159716664e-01 2.457157173816659110e+02 7.600247535248842112e+00 9.012557170925183936e-02
2.578781584850544095e-01 2.485116738962123293e+02 7.856109032981502871e+00 9.289559291630762605e-02
3.342479919853594272e-01 3.274411907911758135e+02 4.068309723047741500e+01 6.967200536663566979e-01
4.106178254856644450e-01 4.173692890860667148e+02 8.770029411591448820e+01 3.772039043868165020e-01
4.869876589859694627e-01 5.141465120934327615e+02 1.182588889034141602e+02 2.589772167635490674e-01
5.633574924862745359e-01 6.153780322071178261e+02 1.464544329580759268e+02 2.973327617750770591e-01
6.397273259865794426e-01 7.207733952543145506e+02 1.798539141855633545e+02 3.356883067866049397e-01
7.160971594868845713e-01 8.304780909591597720e+02 2.188286289732306784e+02 3.740438517981329314e-01
7.924669929871894780e-01 9.446472516893024931e+02 2.637704183235451296e+02 4.123993968096607565e-01
8.688368264874946068e-01 1.063444889433466869e+03 3.150928202118813601e+02 4.507549418211888037e-01
9.452066599877995134e-01 1.187043506781245242e+03 3.732322508464508815e+02 4.891104868327166844e-01
1.021576493488104642e+00 1.315623932127432681e+03 4.386492250398232500e+02 5.274660318442445650e-01
1.097946326988409549e+00 1.449375297836241543e+03 5.118296230061275764e+02 5.658215768557725012e-01
1.174316160488714678e+00 1.588495114754915903e+03 5.932860092898581570e+02 6.041771218673004373e-01
1.250685993989019584e+00 1.733189415126000313e+03 6.835590086185301288e+02 6.425326668788283735e-01
1.327055827489324713e+00 1.883672946528473858e+03 7.832187429523418132e+02 6.808882118903563097e-01
1.403425660989629842e+00 2.040169405746072698e+03 8.928663337196127259e+02 7.192437569018843568e-01
1.479795494489934748e+00 2.202919595840707188e+03 1.014381442386131312e+03 7.723121395774699138e-01
1.556165327990239655e+00 2.372290995507604748e+03 1.151343535715623148e+03 8.425040567310115858e-01
1.632535161490544784e+00 2.548805021503891112e+03 1.306490930886722936e+03 9.126959738845532577e-01
1.708904994990849913e+00 2.733009577243469266e+03 1.478858604813609873e+03 9.569914772058509822e-01
1.785274828491154819e+00 2.925253847066369417e+03 1.659414042817928021e+03 9.227994560142361857e-01
1.861644661991459726e+00 3.125236372840119657e+03 1.840411064012629367e+03 8.886074348226213893e-01
1.938014495491764855e+00 3.332640917072546472e+03 2.021045188075679789e+03 8.544154136310064818e-01
2.014384328992069761e+00 3.547144993647663796e+03 2.200539039521825543e+03 8.202233924393916853e-01
2.090754162492374668e+00 3.768421653835192046e+03 2.378144651167740449e+03 7.860313712477768888e-01
