# density  energy_density  pressure   sound_speed_squared  [All in nuclear units]
2.720000000000000022e-14 2.529924618736292620e-11 1.061056609100270887e-19 3.766610435412189122e-08
1.269999999999999890e-13 1.181251617980081254e-10 4.870113551826584858e-18 6.497781477172163475e-08
6.929999999999999754e-13 6.445728594625782745e-10 1.018299070687946017e-16 3.033770597342807186e-07
6.295000000000000137e-12 5.855111460395753757e-09 5.487150723824490656e-15 1.763710043904196507e-06
1.581000000000000150e-11 1.470523320212576141e-08 2.904239460150760759e-14 3.559434472327477622e-06
3.971999999999999958e-11 3.694456170323160790e-08 1.439340266754906811e-13 6.772854871245677111e-06
9.975999999999999982e-11 9.278976412613005154e-08 6.812143616221268841e-13 1.246890511177539320e-05
2.505999999999999928e-10 2.330928829758143313e-07 3.107749196951638608e-12 2.212095130576091967e-05
6.294000000000000186e-10 5.854398883216247602e-07 1.363250409771533549e-11 3.761981047239428883e-05
1.581000000000000021e-09 1.470619631082054101e-06 5.726014178088476303e-11 6.095350986710739404e-05
3.971999999999999932e-09 3.694861084648016046e-06 2.210019573374265380e-10 8.628023653304385055e-05
5.000000000000000105e-09 4.651201787816927976e-06 3.071485916280120014e-10 9.387863480799757518e-05
9.975999999999999465e-09 9.280587964640925786e-06 8.385361004129998845e-10 1.356922228656245837e-04
1.989999999999999952e-08 1.851419242998081003e-05 2.287763168863418088e-09 1.782101978513718314e-04
3.972999999999999908e-08 3.696699295748789187e-05 6.061583099087538954e-09 2.308134738384234820e-04
7.925999999999999637e-08 7.375765469301719828e-05 1.575347858094044765e-08 2.960532096713864875e-04
1.580999999999999930e-07 1.471491184379128891e-04 3.910429618672550719e-08 3.402859755131850544e-04
1.991000000000000027e-07 1.853209783927820692e-04 5.252045687899177454e-08 3.626488188833278743e-04
3.155999999999999938e-07 2.938002528823880299e-04 9.730770378831954314e-08 4.630767356912104081e-04
5.000999999999999849e-07 4.656344063839075714e-04 1.837494945860225819e-07 5.430301232045120323e-04
6.295999999999999732e-07 5.862651417037388971e-04 2.503103884558263872e-07 5.605192962670089638e-04
9.666999999999999941e-07 9.003386739730535665e-04 4.324450868778576936e-07 5.993081670211623108e-04
1.531999999999999901e-06 1.427170885631398036e-03 7.780217275717420968e-07 7.125938556504039095e-04
2.506999999999999883e-06 2.336134972129507662e-03 1.471005394641589826e-06 8.121876172121876309e-04
3.974000000000000407e-06 3.704315759716615697e-03 2.695705763844323844e-06 9.780674166779417152e-04
4.830000000000000343e-06 4.502887798316278223e-03 3.503988717694660908e-06 1.046253037768318664e-03
6.080999999999999885e-06 5.670217999231269741e-03 4.731126407333307547e-06 1.056224360839501646e-03
7.930000000000000308e-06 7.396012414119570652e-03 6.599662989063778187e-06 1.109203753630785610e-03
9.982000000000000313e-06 9.311815711689977113e-03 8.879881089227186733e-06 1.271216815433141075e-03
1.256999999999999993e-05 1.172874412604260098e-02 1.207676739913533738e-05 1.374195438212825332e-03
1.521999999999999997e-05 1.420427250933824909e-02 1.547541302213394990e-05 1.371610497379100249e-03
1.991000000000000080e-05 1.858690797761085312e-02 2.160710455847765458e-05 1.426578142835871997e-03
2.506999999999999883e-05 2.341050104039446925e-02 2.908031724375689851e-05 1.672007475975408053e-03
2.790999999999999875e-05 2.606604784714952258e-02 3.357009132255487721e-05 1.709425557744154774e-03
3.806999999999999973e-05 3.556967988784798945e-02 4.986781576435106434e-05 1.720407281314112165e-03
5.063000000000000145e-05 4.732434580343149871e-02 7.073400252905581275e-05 1.829889149838781265e-03
6.592000000000000583e-05 6.164112392498975052e-02 9.765037643900635188e-05 1.930242980462695823e-03
8.433000000000000066e-05 7.888776783401378612e-02 1.317235490470395893e-04 2.021055815200022837e-03
1.062000000000000064e-04 9.938561165478684845e-02 1.740088341640037047e-04 2.104789529260958983e-03
1.321000000000000126e-04 1.236720406455826121e-01 2.260189757651373944e-04 2.178291718403657477e-03
1.623999999999999901e-04 1.520974545104751274e-01 2.888169908545388338e-04 2.240170365918073281e-03
1.689999999999999879e-04 1.582907717069566844e-01 3.027354772999506964e-04 2.254509350360745651e-03
1.758999999999999930e-04 1.647661861691531171e-01 3.173785841705756782e-04 2.268169273277113179e-03
1.830000000000000029e-04 1.714298948183871907e-01 3.325196584577469103e-04 2.276170334580628063e-03
1.901999999999999882e-04 1.781880600978280049e-01 3.479577791899843742e-04 2.292561569242367037e-03
1.977000000000000079e-04 1.852284385240466902e-01 3.641242634600037713e-04 2.299943765467868384e-03
2.054000000000000053e-04 1.924572004474696396e-01 3.808304060475003897e-04 2.322187632288155723e-03
2.079000000000000119e-04 1.948043378760714872e-01 3.864137987380476553e-04 2.435429768083530178e-03
2.081999999999999921e-04 1.950859988578999005e-01 3.870314100985603909e-04 1.950065624557156818e-03
2.090999999999999868e-04 1.959309855029948977e-01 3.881261957135444685e-04 6.411875526909013856e-04
2.159999999999999919e-04 2.024093317906446865e-01 3.940874488768042125e-04 1.199166870571831411e-03
2.231000000000000019e-04 2.090756740932291913e-01 4.013938420547467825e-04 9.928616047829054436e-04
2.311000000000000066e-04 2.165873044433437034e-01 4.085241694843774404e-04 9.056166966301716637e-04
2.401000000000000085e-04 2.250381721984245909e-01 4.159700687886608468e-04 8.565463878902855599e-04
2.500000000000000052e-04 2.343344406330727658e-01 4.237602369176299592e-04 8.194318812157330018e-04
2.642999999999999733e-04 2.477629128650125634e-01 4.345596643180389446e-04 7.890063723638815647e-04
3.052999999999999941e-04 2.862671839140227270e-01 4.644058706720978241e-04 7.612775562167708662e-04
3.533000000000000224e-04 3.313503829113090826e-01 4.987577676308450197e-04 7.626578558207241024e-04
4.075999999999999871e-04 3.823564017794535141e-01 5.381334366106255759e-04 7.813048116943254948e-04
4.679999999999999915e-04 4.390986251953180042e-01 5.832692638200615834e-04 8.096035963157804938e-04
5.341000000000000261e-04 5.012024644415256081e-01 6.346556894078133086e-04 8.452514814113673558e-04
6.059000000000000366e-04 5.686690698184251325e-01 6.930641302632923034e-04 8.862253587289389486e-04
7.661000000000000275e-04 7.192254882508629654e-01 8.328184776562496576e-04 9.702780530519144065e-04
1.262000000000000101e-03 1.185459127778160093e+00 1.338484980802662205e-03 1.198863597978450275e-03
1.894999999999999983e-03 1.780909071169781921e+00 2.123481960401060308e-03 1.437771491635827115e-03
2.673000000000000029e-03 2.513147344746868850e+00 3.261860252001994032e-03 1.671524566936786766e-03
3.605999999999999830e-03 3.391736073717691369e+00 4.828136641022434151e-03 1.893900408978071038e-03
4.709999999999999777e-03 4.431905410739045870e+00 6.903512974832482635e-03 2.096551352830673849e-03
7.496000000000000059e-03 7.058993649504918366e+00 1.289742191321638018e-02 2.466596387205546859e-03
1.119999999999999989e-02 1.055540362104863661e+01 2.212077014004794340e-02 2.809304433764861584e-03
1.600000000000000033e-02 1.509117352747679952e+01 3.559566804390756900e-02 3.132325055719984222e-03
2.206999999999999934e-02 2.083310616724802244e+01 5.457322122755020599e-02 3.477840948757840792e-03
2.947999999999999926e-02 2.785007348564149154e+01 8.049103664263126956e-02 3.909302116317729670e-03
4.268000000000000266e-02 4.036707211535221518e+01 1.353887601042819133e-01 4.862066536253286525e-03
6.219999999999999835e-02 5.891246509830522626e+01 2.419691225623893105e-01 6.630786177272363080e-03
7.316999999999999893e-02 6.935151695866235855e+01 3.161896974764099033e-01 7.588671314871411888e-03
7.595999999999999974e-02 7.200836722020332559e+01 3.371250777904805096e-01 8.170805199905812125e-03
7.685877551020407761e-02 7.286441682757696015e+01 3.442108283935317314e-01 8.383718615129806540e-03
7.775755102040816935e-02 7.372055038339786392e+01 3.514832299007536465e-01 8.605213618577868193e-03
7.865632653061224722e-02 7.457676911639242689e+01 3.589495032823823983e-01 8.834883965691903152e-03
7.955510204081632508e-02 7.543307430776157219e+01 3.666165250813589460e-01 9.072323411913841770e-03
8.045387755102040295e-02 7.628946728551026979e+01 3.744908273311030045e-01 9.317125712685603994e-03
8.135265306122449469e-02 7.714594941902917924e+01 3.825785974674053569e-01 9.568884623449106300e-03
8.225142857142857256e-02 7.800252211391544677e+01 3.908856782336856406e-01 9.827193899646272102e-03
8.315020408163265042e-02 7.885918680701792027e+01 3.994175675789652935e-01 1.009164729671901614e-02
8.404897959183672829e-02 7.971594496169637978e+01 4.081794185479901693e-01 1.036183857010926357e-02
8.494775510204082003e-02 8.057279806328149618e+01 4.171760391630273679e-01 1.063736147525893780e-02
8.584653061224489790e-02 8.142974761472630973e+01 4.264118922969363790e-01 1.091780976760994837e-02
8.674530612244897576e-02 8.228679513243821475e+01 4.358910955371909646e-01 1.120277720260422216e-02
8.764408163265305363e-02 8.314394214228208568e+01 4.456174210405930980e-01 1.149185753568368086e-02
8.854285714285714537e-02 8.400119017574600377e+01 4.555942953784886673e-01 1.178464452229024441e-02
8.944163265306122323e-02 8.485854076626110043e+01 4.658247993723510505e-01 1.208073191786582755e-02
9.034040816326530110e-02 8.571599544566750239e+01 4.763116679196588987e-01 1.237971347785235370e-02
9.123918367346939284e-02 8.657355574081906013e+01 4.870572898100418713e-01 1.268118295769174800e-02
9.213795918367347071e-02 8.743122317032026558e+01 4.980637075317213558e-01 1.298473411282592173e-02
9.303673469387754857e-02 8.828899924138859490e+01 5.093326170683203369e-01 1.328996069869679830e-02
9.393551020408162644e-02 8.914688544683556870e+01 5.208653676861544346e-01 1.359645647074629940e-02
9.483428571428570431e-02 9.000488326216201074e+01 5.326629617121638738e-01 1.390381518441634497e-02
9.573306122448979605e-02 9.086299414276054165e+01 5.447260543026796187e-01 1.421163059514886189e-02
9.663183673469387391e-02 9.172121952122168409e+01 5.570549532032554874e-01 1.451949645838575623e-02
9.753061224489795178e-02 9.257956080473711324e+01 5.696496184998326440e-01 1.482700652956895487e-02
9.842938775510204352e-02 9.343801937259719637e+01 5.825096623615317881e-01 1.513375456414038471e-02
9.932816326530612139e-02 9.429659657377663962e+01 5.956343487754025556e-01 1.543933431754195527e-02
1.002269387755101993e-01 9.515529372460574109e+01 6.090225932734876224e-01 1.574333954521558998e-02
1.011257142857142910e-01 9.601411210652236150e+01 6.226729626525827621e-01 1.604536400260321918e-02
1.020244897959183689e-01 9.687305296390165665e+01 6.365836746871038621e-01 1.634500144514674375e-02
1.029232653061224467e-01 9.773211750195899583e+01 6.507525978354959939e-01 1.664184562828809749e-02
1.038220408163265246e-01 9.859130688472461657e+01 6.651772509406378431e-01 1.693549030746919343e-02
1.047208163265306025e-01 9.945062223308480043e+01 6.798548029247238889e-01 1.722552923813196191e-02
1.056195918367346942e-01 1.003100646228882056e+02 6.947820724791213820e-01 1.751155617571831594e-02
1.065183673469387721e-01 1.011696350831137039e+02 7.099555277497211492e-01 1.779316487567017546e-02
1.074171428571428499e-01 1.020293345940979322e+02 7.253712860183233468e-01 1.806994909342946043e-02
1.083159183673469417e-01 1.028891640858186065e+02 7.410251133806093904e-01 1.834150258443809425e-02
1.092146938775510195e-01 1.037491244362329894e+02 7.569124244212748209e-01 1.860741910413798994e-02
1.101134693877550974e-01 1.046092164696677145e+02 7.730282818869140815e-01 1.886729240797108131e-02
1.110122448979591891e-01 1.054694409552588752e+02 7.893673963572575003e-01 1.912071625137927791e-02
1.119110204081632531e-01 1.063297986054401179e+02 8.059241259153809844e-01 1.936728438980449968e-02
1.128097959183673449e-01 1.071902900744759393e+02 8.226924758175259145e-01 1.960659057868867350e-02
1.137085714285714227e-01 1.080509159570400612e+02 8.396660981631651754e-01 1.983822857347370544e-02
1.146073469387755006e-01 1.089116767868353293e+02 8.568382915659877863e-01 2.006179212960153974e-02
1.155061224489795924e-01 1.097725730352546663e+02 8.742020008264634878e-01 2.027687500251407898e-02
1.164048979591836702e-01 1.106336051100813194e+02 8.917498166066739618e-01 2.048307094765324313e-02
1.173036734693877481e-01 1.114947733542264245e+02 9.094739751081087897e-01 2.067997372046095211e-02
1.182024489795918398e-01 1.123560780445031497e+02 9.273663577531249258e-01 2.086717707637914324e-02
1.191012244897959177e-01 1.132175193904351431e+02 9.454184908707894408e-01 2.104427477084970868e-02
1.199999999999999956e-01 1.140790975330995138e+02 9.636215453878324011e-01 2.121086055931459269e-02
1.234292572077658606e-01 1.173676900445778699e+02 1.034307813736743631e+00 2.177779201436783399e-02
1.268585144155317257e-01 1.206582727185610509e+02 1.106884613995371636e+00 2.233392007884093047e-02
1.302877716232976046e-01 1.239508423829238524e+02 1.181316161721761349e+00 2.287780144689685602e-02
1.337170288310634558e-01 1.272453950269531049e+02 1.257561805613509831e+00 2.340798159914896093e-02
1.371462860388293348e-01 1.305419257404122391e+02 1.335575979602881880e+00 2.392299693326899526e-02
1.405755432465952137e-01 1.338404286575902802e+02 1.415308161984630386e+00 2.442137687013396646e-02
1.440048004543610649e-01 1.371408969059017409e+02 1.496702841574813148e+00 2.490164594096905618e-02
1.474340576621269439e-01 1.404433225586599576e+02 1.579699490915453808e+00 2.536232585946874424e-02
1.508633148698928228e-01 1.437476965917051928e+02 1.664232546551885017e+00 2.580193758171026377e-02
1.542925720776586740e-01 1.470540088436078463e+02 1.750231396417945895e+00 2.621900335574894533e-02
1.577218292854245529e-01 1.503622479792103377e+02 1.837620374369493881e+00 2.661204876204885036e-02
1.611510864931904319e-01 1.536724014562984735e+02 1.926318761909548094e+00 2.697960474531235428e-02
1.645803437009562831e-01 1.569844554952237843e+02 2.016240797149206898e+00 2.732020963779868347e-02
1.680096009087221620e-01 1.602983950513203126e+02 2.107295691047564201e+00 2.763241117383579901e-02
1.714388581164880132e-01 1.636142037899793706e+02 2.199387650971476482e+00 2.791476849491425147e-02
1.748681153242538922e-01 1.669318640642645164e+02 2.292415911612437629e+00 2.816585414448952163e-02
1.782973725320197711e-01 1.702513568949592297e+02 2.386274773293024509e+00 2.838425605139658497e-02
1.817266297397856223e-01 1.735726619529598622e+02 2.480853647689684305e+00 2.856857950059166554e-02
1.851558869475515012e-01 1.768957575439291929e+02 2.576037110991952428e+00 2.871744908976743213e-02
1.885851441553173524e-01 1.802206205951402467e+02 2.671704964510712266e+00 2.882951067024002931e-02
1.920144013630832314e-01 1.835472266444485001e+02 2.767732302739847938e+00 2.890343327036834845e-02
1.954436585708491103e-01 1.868755498313322505e+02 2.863989588866591163e+00 2.893791099964030875e-02
1.988729157786149893e-01 1.902055628899528870e+02 2.960342737716161743e+00 2.893166493143850548e-02
2.023021729863808404e-01 1.935372371441881114e+02 3.056653206105846010e+00 2.888344496238333045e-02
2.057314301941466916e-01 1.968705425045957043e+02 3.152778090572585512e+00 2.879203164603776413e-02
2.091606874019125706e-01 2.002054474672699200e+02 3.248570232426389204e+00 2.865623799864822074e-02
2.125899446096784495e-01 2.035419191145563786e+02 3.343878330069516736e+00 2.847491127448751463e-02
2.160192018174443285e-01 2.068799231175881914e+02 3.438547058508395260e+00 2.824693470825867525e-02
2.194484590252101797e-01 2.102194237406174580e+02 3.532417195971635948e+00 2.797122922191394231e-02
2.228777162329760586e-01 2.135603838471090796e+02 3.625325757533383708e+00 2.764675509313941834e-02
2.263069734407419098e-01 2.169027649075671036e+02 3.717106135626511154e+00 2.727251358265713257e-02
2.297362306485077887e-01 2.202465270090706042e+02 3.807588247314984464e+00 2.684754851739738768e-02
2.331654878562736677e-01 2.235916288664851379e+02 3.896598688178989800e+00 2.637094782650342001e-02
2.365947450640395189e-01 2.269380278353277731e+02 3.983960892650300956e+00 2.584184502704152744e-02
2.400240022718053978e-01 2.302856799262559946e+02 4.069495300618793721e+00 2.525942065620987581e-02
2.434532594795712490e-01 2.336345398211510087e+02 4.153019530114103297e+00 2.462290364676382459e-02
2.468825166873371280e-01 2.369845608907720020e+02 4.234348555849239304e+00 2.393157264231206283e-02
2.503117738951030069e-01 2.403356952139462237e+02 4.313294893395470453e+00 2.318475724908144672e-02
2.537410311028688303e-01 2.436878935982707048e+02 4.389668788740195282e+00 2.238183922070420551e-02
2.571702883106347093e-01 2.470411056022898606e+02 4.463278412961743769e+00 2.152225357254990146e-02
2.605995455184005882e-01 2.503952795591198424e+02 4.533930061737246220e+00 2.060548962210523652e-02
2.640288027261664672e-01 2.537503626014856195e+02 4.601428359381997346e+00 1.963109195190218190e-02
2.674580599339323461e-01 2.571063006881345814e+02 4.665576467101074876e+00 1.859866129150564151e-02
2.708873171416982251e-01 2.604630386315914166e+02 4.726176295116566450e+00 1.750785531510186399e-02
2.743165743494641040e-01 2.638205201272164686e+02 4.783028718316649552e+00 1.635838935127447574e-02
2.777458315572299830e-01 2.671786877835267546e+02 4.835933795056027051e+00 1.515003700161942843e-02
2.811750887649958064e-01 2.705374831537390605e+02 4.884690988720997495e+00 1.388263066493438357e-02
2.846043459727616853e-01 2.738968467684907750e+02 4.929099391656788676e+00 1.255606196381842989e-02
2.880336031805275643e-01 2.772567181696955458e+02 4.968957951039785215e+00 1.117028207064151360e-02
3.637880194421494462e-01 3.533227648849306775e+02 2.562268839612185900e+01 5.129632757006752364e-01
4.395424357037713281e-01 4.365181609471125057e+02 7.216831673736373887e+01 6.001159359913745828e-01
5.152968519653932100e-01 5.284869003527957148e+02 1.228007419820736317e+02 5.081321488707361000e-01
5.910512682270150364e-01 6.275666527404152930e+02 1.683527971229599984e+02 4.161483617500977283e-01
6.668056844886369738e-01 7.320547370615463478e+02 2.068680609877800407e+02 3.241645746294591901e-01
7.425601007502589113e-01 8.409705875453715862e+02 2.522254912712974999e+02 5.033511959405169156e-01
8.183145170118806266e-01 9.555496918504769610e+02 3.211795217088614436e+02 6.918559257684280261e-01
8.940689332735025641e-01 1.077567155469444515e+03 4.108381219546895409e+02 7.734812921876454972e-01
9.698233495351245015e-01 1.207773974928406460e+03 5.093566035932667546e+02 7.417652140016847140e-01
1.045577765796746439e+00 1.345746940453913339e+03 6.093929750149499114e+02 7.100491358157239308e-01
1.121332182058368154e+00 1.491002335931526204e+03 7.101185247336009070e+02 6.783330576297632586e-01
1.197086598319990092e+00 1.643067652621383786e+03 8.107579150445411642e+02 6.466169794438024754e-01
1.272841014581612029e+00 1.801482824864116083e+03 9.105885657055554248e+02 6.149009012578416922e-01
1.348595430843233745e+00 1.965801120953511145e+03 1.008939627848104806e+03 5.831848230718810200e-01
1.424349847104855682e+00 2.135589766604952274e+03 1.105190659850603197e+03 5.514687448859202368e-01
1.500104263366477619e+00 2.310430358798870657e+03 1.198770088451840365e+03 5.197526666999594536e-01
1.575858679628099557e+00 2.489919113883607679e+03 1.289153518090835178e+03 4.880365885139986704e-01
1.651613095889721494e+00 2.673666983784165041e+03 1.375861936678299116e+03 4.563205103280378871e-01
1.727367512151343210e+00 2.861299666772547880e+03 1.458459855037573561e+03 4.246044321420771595e-01
1.803121928412965147e+00 3.052457533721561958e+03 1.536553408983320878e+03 3.928883539561163762e-01
1.878876344674587084e+00 3.246795486557004097e+03 1.609788446682411177e+03 3.611722757701556485e-01
1.954630760936208800e+00 3.443982762381850989e+03 1.677848619045656051e+03 3.294561975841948653e-01
2.030385177197830959e+00 3.643710321928779649e+03 1.741025198814990745e+03 3.033994084950956682e-01
2.106139593459452897e+00 3.845732689298842615e+03 1.801314808505146630e+03 2.935493916692123451e-01
