# density  energy_density  pressure   sound_speed_squared  [All in nuclear units]
2.720000000000000022e-14 2.529924618736292620e-11 1.061056609100270887e-19 3.766610435412189122e-08
1.269999999999999890e-13 1.181251617980081254e-10 4.870113551826584858e-18 6.497781477172163475e-08
6.929999999999999754e-13 6.445728594625782745e-10 1.018299070687946017e-16 3.033770597342807186e-07
6.295000000000000137e-12 5.855111460395753757e-09 5.487150723824490656e-15 1.763710043904196507e-06
1.581000000000000150e-11 1.470523320212576141e-08 2.904239460150760759e-14 3.559434472327477622e-06
3.971999999999999958e-11 3.694456170323160790e-08 1.439340266754906811e-13 6.772854871245677111e-06
9.975999999999999982e-11 9.278976412613005154e-08 6.812143616221268841e-13 1.246890511177539320e-05
2.505999999999999928e-10 2.330928829758143313e-07 3.107749196951638608e-12 2.212095130576091967e-05
6.294000000000000186e-10 5.854398883216247602e-07 1.363250409771533549e-11 3.761981047239428883e-05
1.581000000000000021e-09 1.470619631082054101e-06 5.726014178088476303e-11 6.095350986710739404e-05
3.971999999999999932e-09 3.694861084648016046e-06 2.210019573374265380e-10 8.628023653304385055e-05
5.000000000000000105e-09 4.651201787816927976e-06 3.071485916280120014e-10 9.387863480799757518e-05
9.975999999999999465e-09 9.280587964640925786e-06 8.385361004129998845e-10 1.356922228656245837e-04
1.989999999999999952e-08 1.851419242998081003e-05 2.287763168863418088e-09 1.782101978513718314e-04
3.972999999999999908e-08 3.696699295748789187e-05 6.061583099087538954e-09 2.308134738384234820e-04
7.925999999999999637e-08 7.375765469301719828e-05 1.575347858094044765e-08 2.960532096713864875e-04
1.580999999999999930e-07 1.471491184379128891e-04 3.910429618672550719e-08 3.402859755131850544e-04
1.991000000000000027e-07 1.853209783927820692e-04 5.252045687899177454e-08 3.626488188833278743e-04
3.155999999999999938e-07 2.938002528823880299e-04 9.730770378831954314e-08 4.630767356912104081e-04
5.000999999999999849e-07 4.656344063839075714e-04 1.837494945860225819e-07 5.430301232045120323e-04
6.295999999999999732e-07 5.862651417037388971e-04 2.503103884558263872e-07 5.605192962670089638e-04
9.666999999999999941e-07 9.003386739730535665e-04 4.324450868778576936e-07 5.993081670211623108e-04
1.531999999999999901e-06 1.427170885631398036e-03 7.780217275717420968e-07 7.125938556504039095e-04
2.506999999999999883e-06 2.336134972129507662e-03 1.471005394641589826e-06 8.121876172121876309e-04
3.974000000000000407e-06 3.704315759716615697e-03 2.695705763844323844e-06 9.780674166779417152e-04
4.830000000000000343e-06 4.502887798316278223e-03 3.503988717694660908e-06 1.046253037768318664e-03
6.080999999999999885e-06 5.670217999231269741e-03 4.731126407333307547e-06 1.056224360839501646e-03
7.930000000000000308e-06 7.396012414119570652e-03 6.599662989063778187e-06 1.109203753630785610e-03
9.982000000000000313e-06 9.311815711689977113e-03 8.879881089227186733e-06 1.271216815433141075e-03
1.256999999999999993e-05 1.172874412604260098e-02 1.207676739913533738e-05 1.374195438212825332e-03
1.521999999999999997e-05 1.420427250933824909e-02 1.547541302213394990e-05 1.371610497379100249e-03
1.991000000000000080e-05 1.858690797761085312e-02 2.160710455847765458e-05 1.426578142835871997e-03
2.506999999999999883e-05 2.341050104039446925e-02 2.908031724375689851e-05 1.672007475975408053e-03
2.790999999999999875e-05 2.606604784714952258e-02 3.357009132255487721e-05 1.709425557744154774e-03
3.806999999999999973e-05 3.556967988784798945e-02 4.986781576435106434e-05 1.720407281314112165e-03
5.063000000000000145e-05 4.732434580343149871e-02 7.073400252905581275e-05 1.829889149838781265e-03
6.592000000000000583e-05 6.164112392498975052e-02 9.765037643900635188e-05 1.930242980462695823e-03
8.433000000000000066e-05 7.888776783401378612e-02 1.317235490470395893e-04 2.021055815200022837e-03
1.062000000000000064e-04 9.938561165478684845e-02 1.740088341640037047e-04 2.104789529260958983e-03
1.321000000000000126e-04 1.236720406455826121e-01 2.260189757651373944e-04 2.178291718403657477e-03
1.623999999999999901e-04 1.520974545104751274e-01 2.888169908545388338e-04 2.240170365918073281e-03
1.689999999999999879e-04 1.582907717069566844e-01 3.027354772999506964e-04 2.254509350360745651e-03
1.758999999999999930e-04 1.647661861691531171e-01 3.173785841705756782e-04 2.268169273277113179e-03
1.830000000000000029e-04 1.714298948183871907e-01 3.325196584577469103e-04 2.276170334580628063e-03
1.901999999999999882e-04 1.781880600978280049e-01 3.479577791899843742e-04 2.292561569242367037e-03
1.977000000000000079e-04 1.852284385240466902e-01 3.641242634600037713e-04 2.299943765467868384e-03
2.054000000000000053e-04 1.924572004474696396e-01 3.808304060475003897e-04 2.322187632288155723e-03
2.079000000000000119e-04 1.948043378760714872e-01 3.864137987380476553e-04 2.435429768083530178e-03
2.081999999999999921e-04 1.950859988578999005e-01 3.870314100985603909e-04 1.950065624557156818e-03
2.090999999999999868e-04 1.959309855029948977e-01 3.881261957135444685e-04 6.411875526909013856e-04
2.159999999999999919e-04 2.024093317906446865e-01 3.940874488768042125e-04 1.199166870571831411e-03
2.231000000000000019e-04 2.090756740932291913e-01 4.013938420547467825e-04 9.928616047829054436e-04
2.311000000000000066e-04 2.165873044433437034e-01 4.085241694843774404e-04 9.056166966301716637e-04
2.401000000000000085e-04 2.250381721984245909e-01 4.159700687886608468e-04 8.565463878902855599e-04
2.500000000000000052e-04 2.343344406330727658e-01 4.237602369176299592e-04 8.194318812157330018e-04
2.642999999999999733e-04 2.477629128650125634e-01 4.345596643180389446e-04 7.890063723638815647e-04
3.052999999999999941e-04 2.862671839140227270e-01 4.644058706720978241e-04 7.612775562167708662e-04
3.533000000000000224e-04 3.313503829113090826e-01 4.987577676308450197e-04 7.626578558207241024e-04
4.075999999999999871e-04 3.823564017794535141e-01 5.381334366106255759e-04 7.813048116943254948e-04
4.679999999999999915e-04 4.390986251953180042e-01 5.832692638200615834e-04 8.096035963157804938e-04
5.341000000000000261e-04 5.012024644415256081e-01 6.346556894078133086e-04 8.452514814113673558e-04
6.059000000000000366e-04 5.686690698184251325e-01 6.930641302632923034e-04 8.862253587289389486e-04
7.661000000000000275e-04 7.192254882508629654e-01 8.328184776562496576e-04 9.702780530519144065e-04
1.262000000000000101e-03 1.185459127778160093e+00 1.338484980802662205e-03 1.198863597978450275e-03
1.894999999999999983e-03 1.780909071169781921e+00 2.123481960401060308e-03 1.437771491635827115e-03
2.673000000000000029e-03 2.513147344746868850e+00 3.261860252001994032e-03 1.671524566936786766e-03
3.605999999999999830e-03 3.391736073717691369e+00 4.828136641022434151e-03 1.893900408978071038e-03
4.709999999999999777e-03 4.431905410739045870e+00 6.903512974832482635e-03 2.096551352830673849e-03
7.496000000000000059e-03 7.058993649504918366e+00 1.289742191321638018e-02 2.466596387205546859e-03
1.119999999999999989e-02 1.055540362104863661e+01 2.212077014004794340e-02 2.809304433764861584e-03
1.600000000000000033e-02 1.509117352747679952e+01 3.559566804390756900e-02 3.132325055719984222e-03
2.206999999999999934e-02 2.083310616724802244e+01 5.457322122755020599e-02 3.477840948757840792e-03
2.947999999999999926e-02 2.785007348564149154e+01 8.049103664263126956e-02 3.909302116317729670e-03
4.268000000000000266e-02 4.036707211535221518e+01 1.353887601042819133e-01 4.862066536253286525e-03
6.219999999999999835e-02 5.891246509830522626e+01 2.419691225623893105e-01 6.630786177272363080e-03
7.316999999999999893e-02 6.935151695866235855e+01 3.161896974764099033e-01 7.588671314871411888e-03
7.595999999999999974e-02 7.200836722020332559e+01 3.371250777904805096e-01 8.170805199905813859e-03
7.685877551020407761e-02 7.286441687012261070e+01 3.442181095285675729e-01 8.400727960099191316e-03
7.775755102040816935e-02 7.372055066602568729e+01 3.515171338549779034e-01 8.650391200336504660e-03
7.865632653061224722e-02 7.457677011198362038e+01 3.590387629575051420e-01 8.918992465622031102e-03
7.955510204081632508e-02 7.543307686365710651e+01 3.667989293891448788e-01 9.205729300960077341e-03
8.045387755102040295e-02 7.628947271547944808e+01 3.748128860168425946e-01 9.509799251354925792e-03
8.135265306122449469e-02 7.714595958841159984e+01 3.830952059693954470e-01 9.830399861810876216e-03
8.225142857142857256e-02 7.800253951823823684e+01 3.916597825797811239e-01 1.016672867733220582e-02
8.315020408163265042e-02 7.885921464437420525e+01 4.005198293176794877e-01 1.051798324292321785e-02
8.404897959183672829e-02 7.971598719915466802e+01 4.096878797084033685e-01 1.088336110358819643e-02
8.494775510204082003e-02 8.057285949758168897e+01 4.191757872348814695e-01 1.126205980433144307e-02
8.584653061224489790e-02 8.142983392750466010e+01 4.289947252197285343e-01 1.165327689015723325e-02
8.674530612244897576e-02 8.228691294020974567e+01 4.391551866848076857e-01 1.205620990606986673e-02
8.764408163265305363e-02 8.314409904139813534e+01 4.496669841860281847e-01 1.247005639707363632e-02
8.854285714285714537e-02 8.400139478253277048e+01 4.605392496214467113e-01 1.289401390817283485e-02
8.944163265306122323e-02 8.485880275253384752e+01 4.717804340110353101e-01 1.332727998437174821e-02
9.034040816326530110e-02 8.571632556980601692e+01 4.833983072467624154e-01 1.376905217067466228e-02
9.123918367346939284e-02 8.657396587458045190e+01 4.953999578118907787e-01 1.421852801208588549e-02
9.213795918367347071e-02 8.743172632155553003e+01 5.077917924686440321e-01 1.467490505360969331e-02
9.303673469387754857e-02 8.828960957282127708e+01 5.205795359136249356e-01 1.513738084025037858e-02
9.393551020408162644e-02 8.914761829105425761e+01 5.337682304005789691e-01 1.560515291701224452e-02
9.483428571428570431e-02 9.000575513296840313e+01 5.473622353303040367e-01 1.607741882889956314e-02
9.573306122448979605e-02 9.086402274301121906e+01 5.613652268076957386e-01 1.655337612091664634e-02
9.663183673469387391e-02 9.172242374729110281e+01 5.757801971660954088e-01 1.703222233806777480e-02
9.753061224489795178e-02 9.258096074772676332e+01 5.906094544592813689e-01 1.751315502535723267e-02
9.842938775510204352e-02 9.343963631640785650e+01 6.058546219215948936e-01 1.799537172778933186e-02
9.932816326530612139e-02 9.429845299015514115e+01 6.215166373968490365e-01 1.847806999036833916e-02
1.002269387755101993e-01 9.515741326527393085e+01 6.375957527368092403e-01 1.896044735809855955e-02
1.011257142857142910e-01 9.601651959248906110e+01 6.540915331701629976e-01 1.944170137598428758e-02
1.020244897959183689e-01 9.687577437205438002e+01 6.710028566430270569e-01 1.992102958902980392e-02
1.029232653061224467e-01 9.773517994902884709e+01 6.883279131321617950e-01 2.039762954223939967e-02
1.038220408163265246e-01 9.859473860871158024e+01 7.060642039321679553e-01 2.087069878061737285e-02
1.047208163265306025e-01 9.945445257222856128e+01 7.242085409180565314e-01 2.133943484916801803e-02
1.056195918367346942e-01 1.003143239922643062e+02 7.427570457846806029e-01 2.180303529289561934e-02
1.065183673469387721e-01 1.011743549489322476e+02 7.617051492646131905e-01 2.226069765680446788e-02
1.074171428571428499e-01 1.020345474457783439e+02 7.810475903261534514e-01 2.271161948589885821e-02
1.083159183673469417e-01 1.028949034059109380e+02 8.007784153532215843e-01 2.315499832518308140e-02
1.092146938775510195e-01 1.037554246682525161e+02 8.208909773089939632e-01 2.359003171966142509e-02
1.101134693877550974e-01 1.046161129839077830e+02 8.413779348852089557e-01 2.401591721433817689e-02
1.110122448979591891e-01 1.054769700126439176e+02 8.622312516391421600e-01 2.443185235421764523e-02
1.119110204081632531e-01 1.063379973194767416e+02 8.834421951203300649e-01 2.483703468430410038e-02
1.128097959183673449e-01 1.071991963713600882e+02 9.050013359891913023e-01 2.523066174960184038e-02
1.137085714285714227e-01 1.080605685339741342e+02 9.268985471297445100e-01 2.561193109511516325e-02
1.146073469387755006e-01 1.089221150686068427e+02 9.491230027587127527e-01 2.598004026584836007e-02
1.155061224489795924e-01 1.097838371291279032e+02 9.716631775333363086e-01 2.633418680680571500e-02
1.164048979591836702e-01 1.106457357590483639e+02 9.945068456602899065e-01 2.667356826299152606e-02
1.173036734693877481e-01 1.115078118886656711e+02 1.017641080008156340e+00 2.699738217941007046e-02
1.182024489795918398e-01 1.123700663322879052e+02 1.041052251225949909e+00 2.730482610106565663e-02
1.191012244897959177e-01 1.132324997855372573e+02 1.064726026870243647e+00 2.759509757296256527e-02
1.199999999999999956e-01 1.140951128227269322e+02 1.088647370543505577e+00 2.786739414010509092e-02
1.233169863658642729e-01 1.172802054362557982e+02 1.178836822424261577e+00 2.876458095254925615e-02
1.266339727317285502e-01 1.204677633152457332e+02 1.271957330263343566e+00 2.966265381787637143e-02
1.299509590975928275e-01 1.236577987361730067e+02 1.368014457420070329e+00 3.056032261685423176e-02
1.332679454634571048e-01 1.268503234387205936e+02 1.467009656357353586e+00 3.145629074796315455e-02
1.365849318293213543e-01 1.300453485631190347e+02 1.568940236709288616e+00 3.234925864600164680e-02
1.399019181951856317e-01 1.332428845929287604e+02 1.673799343988091159e+00 3.323792710527821714e-02
1.432189045610499090e-01 1.364429413028646536e+02 1.781575948408793408e+00 3.412100041910039183e-02
1.465358909269141863e-01 1.396455277113082332e+02 1.892254843345097637e+00 3.499718934655209751e-02
1.498528772927784636e-01 1.428506520371880697e+02 2.005816652962315594e+00 3.586521391689007077e-02
1.531698636586427409e-01 1.460583216609460919e+02 2.122237848603687027e+00 3.672380608127409629e-02
1.564868500245070182e-01 1.492685430893289151e+02 2.241490773534623671e+00 3.757171222097129004e-02
1.598038363903712955e-01 1.524813219237751696e+02 2.363543675675743305e+00 3.840769552063601905e-02
1.631208227562355728e-01 1.556966628321868598e+02 2.488360747980029153e+00 3.923053821475679104e-02
1.664378091220998224e-01 1.589145695238911742e+02 2.615902176132181456e+00 4.003904371488223313e-02
1.697547954879640997e-01 1.621350447276205671e+02 2.746124193269325442e+00 4.083203862478237967e-02
1.730717818538283770e-01 1.653580901723487386e+02 2.878979141441751821e+00 4.160837465027119458e-02
1.763887682196926543e-01 1.685837065708355169e+02 3.014415539550463041e+00 4.236693041000797605e-02
1.797057545855569316e-01 1.718118936057460928e+02 3.152378157514931001e+00 4.310661315320749726e-02
1.830227409514212089e-01 1.750426499182205760e+02 3.292808096439843624e+00 4.382636038982197502e-02
1.863397273172854862e-01 1.782759730987754381e+02 3.435642874563717086e+00 4.452514143840866773e-02
1.896567136831497358e-01 1.815118596804358901e+02 3.580816518785170821e+00 4.520195889656569016e-02
1.929737000490140408e-01 1.847503051339931517e+02 3.728259661574488515e+00 4.585585003850465441e-02
1.962906864148782904e-01 1.879913038653011483e+02 3.877899643088799309e+00 4.648588814402788288e-02
1.996076727807425955e-01 1.912348492145233081e+02 4.029660618319065968e+00 4.709118376289506830e-02
2.029246591466068450e-01 1.944809334572498472e+02 4.183463669105741189e+00 4.767088591829139049e-02
2.062416455124711223e-01 1.977295478074140931e+02 4.339226920868048509e+00 4.822418325285077190e-02
2.095586318783353996e-01 2.009806824219325279e+02 4.496865663898754306e+00 4.875030512044206676e-02
2.128756182441996769e-01 2.042343264070082114e+02 4.656292479082721592e+00 4.924852262668888425e-02
2.161926046100639542e-01 2.074904678260338073e+02 4.817417367902973702e+00 4.971814962096893914e-02
2.195095909759282038e-01 2.107490937090351508e+02 4.980147886602849461e+00 5.015854364242260111e-02
2.228265773417925089e-01 2.140101900636036589e+02 5.144389284376957860e+00 5.056910682229354137e-02
2.261435637076567584e-01 2.172737418872625028e+02 5.310044645467108637e+00 5.094928674472553459e-02
2.294605500735210635e-01 2.205397331812221182e+02 5.477015035042358981e+00 5.129857726794853634e-02
2.327775364393853130e-01 2.238081469654719626e+02 5.645199648744492649e+00 5.161651930760424722e-02
2.360945228052495903e-01 2.270789652951729636e+02 5.814495965782181308e+00 5.190270158378449544e-02
2.394115091711138676e-01 2.303521692783011758e+02 5.984799905458170421e+00 5.215676133318539881e-02
2.427284955369781450e-01 2.336277390945062109e+02 6.156005987014713021e+00 5.237838498761784173e-02
2.460454819028424223e-01 2.369056540151464105e+02 6.328007492682712787e+00 5.256730881995493737e-02
2.493624682687066996e-01 2.401858924244616844e+02 6.500696633819933901e+00 5.272331955844706403e-02
2.526794546345709769e-01 2.434684318418503608e+02 6.673964720023081831e+00 5.284625497018644036e-02
2.559964410004352819e-01 2.467532489452156312e+02 6.847702331097642592e+00 5.293600441436284443e-02
2.593134273662994760e-01 2.500403195953473130e+02 7.021799491768066837e+00 5.299250936581515609e-02
2.626304137321637810e-01 2.533296188613107631e+02 7.196145849009308648e+00 5.301576390925170218e-02
2.659474000980280861e-01 2.566211210468039781e+02 7.370630851878658518e+00 5.300581520438654715e-02
2.692643864638923357e-01 2.599147997174633247e+02 7.545143933724778762e+00 5.296276392211605316e-02
2.725813728297565852e-01 2.632106277290796470e+02 7.719574696648171752e+00 5.288676465174427244e-02
2.758983591956208903e-01 2.665085772566981177e+02 7.893813098084629054e+00 5.277802627915204742e-02
2.792153455614851953e-01 2.698086198245770788e+02 8.067749639380242144e+00 5.263681233569916101e-02
2.825323319273494449e-01 2.731107263369717089e+02 8.241275556223381926e+00 5.246344131754388657e-02
3.583990190308729007e-01 3.501107260555468770e+02 2.170440316096925670e+01 2.917499241539626142e-01
4.342657061343964120e-01 4.317509426397861603e+02 5.580149262785835163e+01 5.310364069903814599e-01
5.101323932379199233e-01 5.209626374865954404e+02 1.077225460239376957e+02 6.268658384223084745e-01
5.859990803414434346e-01 6.186007243346002724e+02 1.634997614086014437e+02 5.228760553459419480e-01
6.618657674449668349e-01 7.230453989217102162e+02 2.124301342464816571e+02 4.188862722695757546e-01
7.377324545484903462e-01 8.325997512842775450e+02 2.524574066440025319e+02 3.148964891932093391e-01
8.135991416520138575e-01 9.464191972553801406e+02 3.055925148714514421e+02 6.092835765725943542e-01
8.894658287555372578e-01 1.066270408100162513e+03 3.697618902034224107e+02 4.670430260742984285e-01
9.653325158590608801e-01 1.191142936757369171e+03 4.269466608799613141e+02 4.495117046579904518e-01
1.041199202962584280e+00 1.320507365235032694e+03 4.839266402474179358e+02 4.319803832416825307e-01
1.117065890066107681e+00 1.453951412808893792e+03 5.376722723447064709e+02 3.747853944749063859e-01
1.192932577169631303e+00 1.590799470366928290e+03 5.836493178756981024e+02 2.983587386139171516e-01
1.268799264273154703e+00 1.730258859108693059e+03 6.198724157477411154e+02 2.219320827529280560e-01
1.344665951376678104e+00 1.871572315661115226e+03 6.457989619220892337e+02 1.455054268919390159e-01
1.420532638480201726e+00 2.014192571620984609e+03 6.671639465715550159e+02 1.540716932193445243e-01
1.496399325583725126e+00 2.158003511244379297e+03 6.905019114463090091e+02 1.704241789536003193e-01
1.572266012687248526e+00 2.303061803838264495e+03 7.164146442234953156e+02 1.867766646878560866e-01
1.648132699790772149e+00 2.449432807591940673e+03 7.449556757857562843e+02 2.031291504221119093e-01
1.723999386894295549e+00 2.597178379017947009e+03 7.761810056761194119e+02 2.194816361563676765e-01
1.799866073997819171e+00 2.746357442520315089e+03 8.101490022934048056e+02 2.358341218906234993e-01
1.875732761101342572e+00 2.897026460018751550e+03 8.469203253726687990e+02 2.521866076248792665e-01
1.951599448204865972e+00 3.049239821694974125e+03 8.865578664017840538e+02 2.685390933591350615e-01
2.027466135308389816e+00 3.203050173853768683e+03 9.291267036409445836e+02 2.848915790933909120e-01
2.103332822411913217e+00 3.358508696182736912e+03 9.746940691612468299e+02 3.012440648276466515e-01
