# density  energy_density  pressure   sound_speed_squared  [All in nuclear units]
2.720000000000000022e-14 2.529924618736292620e-11 1.061056609100270887e-19 3.766610435412189122e-08
1.269999999999999890e-13 1.181251617980081254e-10 4.870113551826584858e-18 6.497781477172163475e-08
6.929999999999999754e-13 6.445728594625782745e-10 1.018299070687946017e-16 3.033770597342807186e-07
6.295000000000000137e-12 5.855111460395753757e-09 5.487150723824490656e-15 1.763710043904196507e-06
1.581000000000000150e-11 1.470523320212576141e-08 2.904239460150760759e-14 3.559434472327477622e-06
3.971999999999999958e-11 3.694456170323160790e-08 1.439340266754906811e-13 6.772854871245677111e-06
9.975999999999999982e-11 9.278976412613005154e-08 6.812143616221268841e-13 1.246890511177539320e-05
2.505999999999999928e-10 2.330928829758143313e-07 3.107749196951638608e-12 2.212095130576091967e-05
6.294000000000000186e-10 5.854398883216247602e-07 1.363250409771533549e-11 3.761981047239428883e-05
1.581000000000000021e-09 1.470619631082054101e-06 5.726014178088476303e-11 6.095350986710739404e-05
3.971999999999999932e-09 3.694861084648016046e-06 2.210019573374265380e-10 8.628023653304385055e-05
5.000000000000000105e-09 4.651201787816927976e-06 3.071485916280120014e-10 9.387863480799757518e-05
9.975999999999999465e-09 9.280587964640925786e-06 8.385361004129998845e-10 1.356922228656245837e-04
1.989999999999999952e-08 1.851419242998081003e-05 2.287763168863418088e-09 1.782101978513718314e-04
3.972999999999999908e-08 3.696699295748789187e-05 6.061583099087538954e-09 2.308134738384234820e-04
7.925999999999999637e-08 7.375765469301719828e-05 1.575347858094044765e-08 2.960532096713864875e-04
1.580999999999999930e-07 1.471491184379128891e-04 3.910429618672550719e-08 3.402859755131850544e-04
1.991000000000000027e-07 1.853209783927820692e-04 5.252045687899177454e-08 3.626488188833278743e-04
3.155999999999999938e-07 2.938002528823880299e-04 9.730770378831954314e-08 4.630767356912104081e-04
5.000999999999999849e-07 4.656344063839075714e-04 1.837494945860225819e-07 5.430301232045120323e-04
6.295999999999999732e-07 5.862651417037388971e-04 2.503103884558263872e-07 5.605192962670089638e-04
9.666999999999999941e-07 9.003386739730535665e-04 4.324450868778576936e-07 5.993081670211623108e-04
1.531999999999999901e-06 1.427170885631398036e-03 7.780217275717420968e-07 7.125938556504039095e-04
2.506999999999999883e-06 2.336134972129507662e-03 1.471005394641589826e-06 8.121876172121876309e-04
3.974000000000000407e-06 3.704315759716615697e-03 2.695705763844323844e-06 9.780674166779417152e-04
4.830000000000000343e-06 4.502887798316278223e-03 3.503988717694660908e-06 1.046253037768318664e-03
6.080999999999999885e-06 5.670217999231269741e-03 4.731126407333307547e-06 1.056224360839501646e-03
7.930000000000000308e-06 7.396012414119570652e-03 6.599662989063778187e-06 1.109203753630785610e-03
9.982000000000000313e-06 9.311815711689977113e-03 8.879881089227186733e-06 1.271216815433141075e-03
1.256999999999999993e-05 1.172874412604260098e-02 1.207676739913533738e-05 1.374195438212825332e-03
1.521999999999999997e-05 1.420427250933824909e-02 1.547541302213394990e-05 1.371610497379100249e-03
1.991000000000000080e-05 1.858690797761085312e-02 2.160710455847765458e-05 1.426578142835871997e-03
2.506999999999999883e-05 2.341050104039446925e-02 2.908031724375689851e-05 1.672007475975408053e-03
2.790999999999999875e-05 2.606604784714952258e-02 3.357009132255487721e-05 1.709425557744154774e-03
3.806999999999999973e-05 3.556967988784798945e-02 4.986781576435106434e-05 1.720407281314112165e-03
5.063000000000000145e-05 4.732434580343149871e-02 7.073400252905581275e-05 1.829889149838781265e-03
6.592000000000000583e-05 6.164112392498975052e-02 9.765037643900635188e-05 1.930242980462695823e-03
8.433000000000000066e-05 7.888776783401378612e-02 1.317235490470395893e-04 2.021055815200022837e-03
1.062000000000000064e-04 9.938561165478684845e-02 1.740088341640037047e-04 2.104789529260958983e-03
1.321000000000000126e-04 1.236720406455826121e-01 2.260189757651373944e-04 2.178291718403657477e-03
1.623999999999999901e-04 1.520974545104751274e-01 2.888169908545388338e-04 2.240170365918073281e-03
1.689999999999999879e-04 1.582907717069566844e-01 3.027354772999506964e-04 2.254509350360745651e-03
1.758999999999999930e-04 1.647661861691531171e-01 3.173785841705756782e-04 2.268169273277113179e-03
1.830000000000000029e-04 1.714298948183871907e-01 3.325196584577469103e-04 2.276170334580628063e-03
1.901999999999999882e-04 1.781880600978280049e-01 3.479577791899843742e-04 2.292561569242367037e-03
1.977000000000000079e-04 1.852284385240466902e-01 3.641242634600037713e-04 2.299943765467868384e-03
2.054000000000000053e-04 1.924572004474696396e-01 3.808304060475003897e-04 2.322187632288155723e-03
2.079000000000000119e-04 1.948043378760714872e-01 3.864137987380476553e-04 2.435429768083530178e-03
2.081999999999999921e-04 1.950859988578999005e-01 3.870314100985603909e-04 1.950065624557156818e-03
2.090999999999999868e-04 1.959309855029948977e-01 3.881261957135444685e-04 6.411875526909013856e-04
2.159999999999999919e-04 2.024093317906446865e-01 3.940874488768042125e-04 1.199166870571831411e-03
2.231000000000000019e-04 2.090756740932291913e-01 4.013938420547467825e-04 9.928616047829054436e-04
2.311000000000000066e-04 2.165873044433437034e-01 4.085241694843774404e-04 9.056166966301716637e-04
2.401000000000000085e-04 2.250381721984245909e-01 4.159700687886608468e-04 8.565463878902855599e-04
2.500000000000000052e-04 2.343344406330727658e-01 4.237602369176299592e-04 8.194318812157330018e-04
2.642999999999999733e-04 2.477629128650125634e-01 4.345596643180389446e-04 7.890063723638815647e-04
3.052999999999999941e-04 2.862671839140227270e-01 4.644058706720978241e-04 7.612775562167708662e-04
3.533000000000000224e-04 3.313503829113090826e-01 4.987577676308450197e-04 7.626578558207241024e-04
4.075999999999999871e-04 3.823564017794535141e-01 5.381334366106255759e-04 7.813048116943254948e-04
4.679999999999999915e-04 4.390986251953180042e-01 5.832692638200615834e-04 8.096035963157804938e-04
5.341000000000000261e-04 5.012024644415256081e-01 6.346556894078133086e-04 8.452514814113673558e-04
6.059000000000000366e-04 5.686690698184251325e-01 6.930641302632923034e-04 8.862253587289389486e-04
7.661000000000000275e-04 7.192254882508629654e-01 8.328184776562496576e-04 9.702780530519144065e-04
1.262000000000000101e-03 1.185459127778160093e+00 1.338484980802662205e-03 1.198863597978450275e-03
1.894999999999999983e-03 1.780909071169781921e+00 2.123481960401060308e-03 1.437771491635827115e-03
2.673000000000000029e-03 2.513147344746868850e+00 3.261860252001994032e-03 1.671524566936786766e-03
3.605999999999999830e-03 3.391736073717691369e+00 4.828136641022434151e-03 1.893900408978071038e-03
4.709999999999999777e-03 4.431905410739045870e+00 6.903512974832482635e-03 2.096551352830673849e-03
7.496000000000000059e-03 7.058993649504918366e+00 1.289742191321638018e-02 2.466596387205546859e-03
1.119999999999999989e-02 1.055540362104863661e+01 2.212077014004794340e-02 2.809304433764861584e-03
1.600000000000000033e-02 1.509117352747679952e+01 3.559566804390756900e-02 3.132325055719984222e-03
2.206999999999999934e-02 2.083310616724802244e+01 5.457322122755020599e-02 3.477840948757840792e-03
2.947999999999999926e-02 2.785007348564149154e+01 8.049103664263126956e-02 3.909302116317729670e-03
4.268000000000000266e-02 4.036707211535221518e+01 1.353887601042819133e-01 4.862066536253286525e-03
6.219999999999999835e-02 5.891246509830522626e+01 2.419691225623893105e-01 6.630786177272363080e-03
7.316999999999999893e-02 6.935151695866235855e+01 3.161896974764099033e-01 7.588671314871411888e-03
7.595999999999999974e-02 7.200836722020332559e+01 3.371250777904805096e-01 8.170805199905812125e-03
7.685877551020407761e-02 7.286441677683841078e+01 3.442021453129277542e-01 8.363434202733055489e-03
7.775755102040816935e-02 7.372055004695756963e+01 3.514429040298850393e-01 8.551585143484214530e-03
7.865632653061224722e-02 7.457676793404451132e+01 3.588437073883132267e-01 8.735603613970651868e-03
7.955510204081632508e-02 7.543307128094102154e+01 3.664012036435059239e-01 8.915835206003737065e-03
8.045387755102040295e-02 7.628946087523344488e+01 3.741123359603604759e-01 9.092625511394839682e-03
8.135265306122449469e-02 7.714593745440063799e+01 3.819743425222817401e-01 9.266320121955327546e-03
8.225142857142857256e-02 7.800250171073454908e+01 3.899847566469387683e-01 9.437264629496563278e-03
8.315020408163265042e-02 7.885915429604800408e+01 3.981414069081820051e-01 9.605804625829916440e-03
8.404897959183672829e-02 7.971589582617961867e+01 4.064424172635060506e-01 9.772285702766751389e-03
8.494775510204082003e-02 8.057272688530763105e+01 4.148862071865188073e-01 9.937053452118444624e-03
8.584653061224489790e-02 8.142964803008260333e+01 4.234714918039461651e-01 1.010045346569635009e-02
8.674530612244897576e-02 8.228665979358837035e+01 4.321972820367669943e-01 1.026283133531184083e-02
8.764408163265305363e-02 8.314376268914034540e+01 4.410628847451299461e-01 1.042453265277629160e-02
8.854285714285714537e-02 8.400095721392965231e+01 4.500679028767642920e-01 1.058590300990106155e-02
8.944163265306122323e-02 8.485824385252041679e+01 4.592122356186450483e-01 1.074728799849751330e-02
9.034040816326530110e-02 8.571562308020858723e+01 4.684960785517265358e-01 1.090903321037702337e-02
9.123918367346939284e-02 8.657309536624784130e+01 4.779199238085986567e-01 1.107148423735095609e-02
9.213795918367347071e-02 8.743066117695103401e+01 4.874845602339678563e-01 1.123498667123067757e-02
9.303673469387754857e-02 8.828832097867082496e+01 4.971910735479052601e-01 1.139988610382755216e-02
9.393551020408162644e-02 8.914607524066811095e+01 5.070408465118375618e-01 1.156652812695295636e-02
9.483428571428570431e-02 9.000392443787123398e+01 5.170355590972978144e-01 1.173525833241824412e-02
9.573306122448979605e-02 9.086186905353264365e+01 5.271771886574828647e-01 1.190642231203479715e-02
9.663183673469387391e-02 9.171990958178727738e+01 5.374680101016970912e-01 1.208036565761397285e-02
9.753061224489795178e-02 9.257804653011746154e+01 5.479105960727927993e-01 1.225743396096713733e-02
9.842938775510204352e-02 9.343628042172879589e+01 5.585078171277424453e-01 1.243797281390566709e-02
9.932816326530612139e-02 9.429461179784026115e+01 5.692628419215074453e-01 1.262232780824091780e-02
1.002269387755101993e-01 9.515304121989369435e+01 5.801791373943928631e-01 1.281084453578426249e-02
1.011257142857142910e-01 9.601156927168570121e+01 5.912604689630981403e-01 1.300386858834707594e-02
1.020244897959183689e-01 9.687019656142533108e+01 6.025109007156982388e-01 1.320174555774071209e-02
1.029232653061224467e-01 9.772892372372062653e+01 6.139347956108132109e-01 1.340482103577654224e-02
1.038220408163265246e-01 9.858775142149812609e+01 6.255368156812368685e-01 1.361344061426593768e-02
1.047208163265306025e-01 9.944668034785740929e+01 6.373219222423215369e-01 1.382794988502026451e-02
1.056195918367346942e-01 1.003057112278638812e+02 6.492953761054301998e-01 1.404869443985088534e-02
1.065183673469387721e-01 1.011648448202818855e+02 6.614627377967827737e-01 1.427601987056916974e-02
1.074171428571428499e-01 1.020240819192521826e+02 6.738298677820454552e-01 1.451027176898649074e-02
1.083159183673469417e-01 1.028834233559140330e+02 6.864029266970179677e-01 1.475179572691420748e-02
1.092146938775510195e-01 1.037428699999762074e+02 6.991883755847965176e-01 1.500093733616368608e-02
1.101134693877550974e-01 1.046024227612380031e+02 7.121929761398014813e-01 1.525804218854630127e-02
1.110122448979591891e-01 1.054620825910624546e+02 7.254237909590688371e-01 1.552345587587342091e-02
1.119110204081632531e-01 1.063218504838040133e+02 7.388881838012196779e-01 1.579752398995640239e-02
1.128097959183673449e-01 1.071817274781926983e+02 7.525938198535389034e-01 1.608059212260662049e-02
1.137085714285714227e-01 1.080417146586758150e+02 7.665486660075905290e-01 1.637300586563544130e-02
1.146073469387755006e-01 1.089018131567200811e+02 7.807609911438300188e-01 1.667511081085422744e-02
1.155061224489795924e-01 1.097620241520744599e+02 7.952393664256631745e-01 1.698725255007435542e-02
1.164048979591836702e-01 1.106223488739965433e+02 8.099926656034240890e-01 1.730977667510718437e-02
1.173036734693877481e-01 1.114827886024431507e+02 8.250300653287527819e-01 1.764302877776408388e-02
1.182024489795918398e-01 1.123433446692275197e+02 8.403610454798560170e-01 1.798735444985642001e-02
1.191012244897959177e-01 1.132040184591424179e+02 8.559953894981497946e-01 1.834309928319556235e-02
1.199999999999999956e-01 1.140648114110535403e+02 8.719431847367909993e-01 1.871060886959287697e-02
1.221704297778295756e-01 1.161440209288417549e+02 9.118118238555256161e-01 1.963905255706729219e-02
1.243408595556591417e-01 1.182239562008044658e+02 9.536554653683118055e-01 2.059631816228579132e-02
1.265112893334887079e-01 1.203046395723501121e+02 9.975360796502890093e-01 2.158256094254239893e-02
1.286817191113182879e-01 1.223860936892344995e+02 1.043516092374918047e+00 2.259793182450520188e-02
1.308521488891478679e-01 1.244683414900081999e+02 1.091658380634985326e+00 2.364257713102532049e-02
1.330225786669774479e-01 1.265514061988969985e+02 1.142026268560303981e+00 2.471663829947820523e-02
1.351930084448070279e-01 1.286353113190712349e+02 1.194683522411754018e+00 2.582025159256251187e-02
1.373634382226365802e-01 1.307200806262638366e+02 1.249694345132954520e+00 2.695354780244534759e-02
1.395338680004661602e-01 1.328057381627027098e+02 1.307123370342419655e+00 2.811665194909329646e-02
1.417042977782957403e-01 1.348923082313208397e+02 1.367035655750490797e+00 2.930968297359520802e-02
1.438747275561253203e-01 1.369798153902180502e+02 1.429496675986739129e+00 3.053275342724292088e-02
1.460451573339548725e-01 1.390682844473425348e+02 1.494572314824802017e+00 3.178596915710937831e-02
1.482155871117844526e-01 1.411577404553694350e+02 1.562328856792869702e+00 3.306942898882845455e-02
1.503860168896140326e-01 1.432482087067518819e+02 1.632832978159173498e+00 3.438322440725547630e-02
1.525564466674436126e-01 1.453397147289233544e+02 1.706151737282965097e+00 3.572743923566254476e-02
1.547268764452731649e-01 1.474322842796306929e+02 1.782352564322491562e+00 3.710214931409561850e-02
1.568973062231027449e-01 1.495259433423807423e+02 1.861503250292493972e+00 3.850742217750118684e-02
1.590677360009323249e-01 1.516207181219829465e+02 1.943671935464683198e+00 3.994331673420653539e-02
1.612381657787619049e-01 1.537166350401721786e+02 2.028927097105587496e+00 4.140988294531931097e-02
1.634085955565914849e-01 1.558137207312983321e+02 2.117337536547004184e+00 4.290716150559273356e-02
1.655790253344210372e-01 1.579120020380681524e+02 2.208972365585134323e+00 4.443518352628565010e-02
1.677494551122506172e-01 1.600115060073287054e+02 2.303900992205285103e+00 4.599397022052948564e-02
1.699198848900801972e-01 1.621122598858785295e+02 2.402193105629760073e+00 4.758353259169915972e-02
1.720903146679097773e-01 1.642142911162992505e+02 2.503918660687348474e+00 4.920387112527020712e-02
1.742607444457393573e-01 1.663176273327951549e+02 2.609147861503488652e+00 5.085497548462985379e-02
1.764311742235689096e-01 1.684222963570322236e+02 2.717951144510903028e+00 5.253682421129836355e-02
1.786016040013984896e-01 1.705283261939704573e+02 2.830399160781170487e+00 5.424938443000301702e-02
1.807720337792280696e-01 1.726357450276786096e+02 2.946562757678327760e+00 5.599261155903719617e-02
1.829424635570576219e-01 1.747445812171259263e+02 3.066512959836282803e+00 5.776644902632591116e-02
1.851128933348872296e-01 1.768548632919445538e+02 3.190320949462403188e+00 5.957082799160932918e-02
1.872833231127167819e-01 1.789666199481550564e+02 3.318058045970253112e+00 6.140566707514718420e-02
1.894537528905463619e-01 1.810798800438510341e+02 3.449795684945139662e+00 6.327087209333893958e-02
1.916241826683759419e-01 1.831946725948363905e+02 3.585605396446596593e+00 6.516633580164643558e-02
1.937946124462054942e-01 1.853110267702099634e+02 3.725558782652671042e+00 6.709193764520059167e-02
1.959650422240351020e-01 1.874289718878966369e+02 3.869727494851395111e+00 6.904754351746697494e-02
1.981354720018646542e-01 1.895485374101142781e+02 4.018183209785420651e+00 7.103300552734004292e-02
2.003059017796942343e-01 1.916697529387806753e+02 4.170997605356499882e+00 7.304816177503403729e-02
2.024763315575238143e-01 1.937926482108491086e+02 4.328242335696952381e+00 7.509283613713181593e-02
2.046467613353533666e-01 1.959172530935770169e+02 4.489989005616039641e+00 7.716683806115445798e-02
2.068171911131829466e-01 1.980435975797184369e+02 4.656309144429716440e+00 7.926996237001125711e-02
2.089876208910125266e-01 2.001717117826416654e+02 4.827274179182881930e+00 8.140198907668924622e-02
2.111580506688421066e-01 2.023016259313682781e+02 5.002955407274000343e+00 8.356268320954376994e-02
2.133284804466716866e-01 2.044333703655321983e+02 5.183423968492573586e+00 8.575179464855262057e-02
2.154989102245012389e-01 2.065669755302563431e+02 5.368750816480725163e+00 8.796905797289829299e-02
2.176693400023308189e-01 2.087024719709446288e+02 5.559006689630892950e+00 9.021419232024861790e-02
2.198397697801603989e-01 2.108398903279901333e+02 5.754262081432393927e+00 9.248690125811030727e-02
2.220101995579899512e-01 2.129792613313962875e+02 5.954587210280488208e+00 9.478687266763657915e-02
2.241806293358195590e-01 2.151206157953102434e+02 6.160051988762407227e+00 9.711377864027755102e-02
2.263510591136491112e-01 2.172639846124687892e+02 6.370725992435658291e+00 9.946727538767065335e-02
3.033643028052073198e-01 2.951752382543588169e+02 1.912674391380541650e+01 2.248863670296785688e-01
3.803775464967654729e-01 3.775716327182070700e+02 4.301351273686138654e+01 3.503054586716863317e-01
4.573907901883236260e-01 4.659689038512148045e+02 7.978598434366543302e+01 4.757245503136941500e-01
5.344040338798818901e-01 5.615687836052118200e+02 1.279119894442653163e+02 5.287457756117742713e-01
6.114172775714399322e-01 6.646292444827624877e+02 1.816018912392904099e+02 5.145213834399184893e-01
6.884305212629981963e-01 7.745980501451274449e+02 2.373409960532416676e+02 5.002969912680625963e-01
7.654437649545564604e-01 8.909401146408981731e+02 2.960415263037509135e+02 5.088180323629667434e-01
8.424570086461145024e-01 1.013472335453329492e+03 3.622175014521318417e+02 5.692346374744623461e-01
9.194702523376727665e-01 1.142545573451867313e+03 4.397341503563951619e+02 6.296512425859580597e-01
9.964834960292308086e-01 1.278604861966792441e+03 5.296772472612799447e+02 6.900678476974536624e-01
1.073496739720789073e+00 1.422113748186802923e+03 6.332267484227197656e+02 7.504844528089493760e-01
1.150509983412347337e+00 1.573523035019878535e+03 7.472172564526435963e+02 7.552221547339613705e-01
1.227523227103905379e+00 1.732771240670288989e+03 8.660751368079485246e+02 7.383984290305393161e-01
1.304536470795463643e+00 1.899571104560873664e+03 9.877701071386503600e+02 7.215747033271173727e-01
1.381549714487021685e+00 2.073630346649270905e+03 1.111839487982592118e+03 7.047509776236953183e-01
1.458562958178579949e+00 2.254664046051389960e+03 1.237840479705381995e+03 6.879272519202732639e-01
1.535576201870138213e+00 2.442394509314442075e+03 1.365349577899496353e+03 6.711035262168513205e-01
1.612589445561696255e+00 2.636551136018421857e+03 1.493961998029299139e+03 6.542798005134292660e-01
1.689602689253254519e+00 2.836870282813619724e+03 1.623291110325134923e+03 6.374560748100073226e-01
1.766615932944812561e+00 3.043095126736453494e+03 1.752967885626937687e+03 6.206323491065852682e-01
1.843629176636370826e+00 3.254975528450702313e+03 1.882640352655318111e+03 6.038086234031632138e-01
1.920642420327929090e+00 3.472267895914907058e+03 2.011973067022358691e+03 5.869848976997412704e-01
1.997655664019487132e+00 3.694735048865994031e+03 2.140646592169518954e+03 5.701611719963192160e-01
2.074668907711045396e+00 3.922146084424107357e+03 2.268356992325098872e+03 5.533374462928972726e-01
