# density  energy_density  pressure   sound_speed_squared  [All in nuclear units]
2.720000000000000022e-14 2.529924618736292620e-11 1.061056609100270887e-19 3.766610435412189122e-08
1.269999999999999890e-13 1.181251617980081254e-10 4.870113551826584858e-18 6.497781477172163475e-08
6.929999999999999754e-13 6.445728594625782745e-10 1.018299070687946017e-16 3.033770597342807186e-07
6.295000000000000137e-12 5.855111460395753757e-09 5.487150723824490656e-15 1.763710043904196507e-06
1.581000000000000150e-11 1.470523320212576141e-08 2.904239460150760759e-14 3.559434472327477622e-06
3.971999999999999958e-11 3.694456170323160790e-08 1.439340266754906811e-13 6.772854871245677111e-06
9.975999999999999982e-11 9.278976412613005154e-08 6.812143616221268841e-13 1.246890511177539320e-05
2.505999999999999928e-10 2.330928829758143313e-07 3.107749196951638608e-12 2.212095130576091967e-05
6.294000000000000186e-10 5.854398883216247602e-07 1.363250409771533549e-11 3.761981047239428883e-05
1.581000000000000021e-09 1.470619631082054101e-06 5.726014178088476303e-11 6.095350986710739404e-05
3.971999999999999932e-09 3.694861084648016046e-06 2.210019573374265380e-10 8.628023653304385055e-05
5.000000000000000105e-09 4.651201787816927976e-06 3.071485916280120014e-10 9.387863480799757518e-05
9.975999999999999465e-09 9.280587964640925786e-06 8.385361004129998845e-10 1.356922228656245837e-04
1.989999999999999952e-08 1.851419242998081003e-05 2.287763168863418088e-09 1.782101978513718314e-04
3.972999999999999908e-08 3.696699295748789187e-05 6.061583099087538954e-09 2.308134738384234820e-04
7.925999999999999637e-08 7.375765469301719828e-05 1.575347858094044765e-08 2.960532096713864875e-04
1.580999999999999930e-07 1.471491184379128891e-04 3.910429618672550719e-08 3.402859755131850544e-04
1.991000000000000027e-07 1.853209783927820692e-04 5.252045687899177454e-08 3.626488188833278743e-04
3.155999999999999938e-07 2.938002528823880299e-04 9.730770378831954314e-08 4.630767356912104081e-04
5.000999999999999849e-07 4.656344063839075714e-04 1.837494945860225819e-07 5.430301232045120323e-04
6.295999999999999732e-07 5.862651417037388971e-04 2.503103884558263872e-07 5.605192962670089638e-04
9.666999999999999941e-07 9.003386739730535665e-04 4.324450868778576936e-07 5.993081670211623108e-04
1.531999999999999901e-06 1.427170885631398036e-03 7.780217275717420968e-07 7.125938556504039095e-04
2.506999999999999883e-06 2.336134972129507662e-03 1.471005394641589826e-06 8.121876172121876309e-04
3.974000000000000407e-06 3.704315759716615697e-03 2.695705763844323844e-06 9.780674166779417152e-04
4.830000000000000343e-06 4.502887798316278223e-03 3.503988717694660908e-06 1.046253037768318664e-03
6.080999999999999885e-06 5.670217999231269741e-03 4.731126407333307547e-06 1.056224360839501646e-03
7.930000000000000308e-06 7.396012414119570652e-03 6.599662989063778187e-06 1.109203753630785610e-03
9.982000000000000313e-06 9.311815711689977113e-03 8.879881089227186733e-06 1.271216815433141075e-03
1.256999999999999993e-05 1.172874412604260098e-02 1.207676739913533738e-05 1.374195438212825332e-03
1.521999999999999997e-05 1.420427250933824909e-02 1.547541302213394990e-05 1.371610497379100249e-03
1.991000000000000080e-05 1.858690797761085312e-02 2.160710455847765458e-05 1.426578142835871997e-03
2.506999999999999883e-05 2.341050104039446925e-02 2.908031724375689851e-05 1.672007475975408053e-03
2.790999999999999875e-05 2.606604784714952258e-02 3.357009132255487721e-05 1.709425557744154774e-03
3.806999999999999973e-05 3.556967988784798945e-02 4.986781576435106434e-05 1.720407281314112165e-03
5.063000000000000145e-05 4.732434580343149871e-02 7.073400252905581275e-05 1.829889149838781265e-03
6.592000000000000583e-05 6.164112392498975052e-02 9.765037643900635188e-05 1.930242980462695823e-03
8.433000000000000066e-05 7.888776783401378612e-02 1.317235490470395893e-04 2.021055815200022837e-03
1.062000000000000064e-04 9.938561165478684845e-02 1.740088341640037047e-04 2.104789529260958983e-03
1.321000000000000126e-04 1.236720406455826121e-01 2.260189757651373944e-04 2.178291718403657477e-03
1.623999999999999901e-04 1.520974545104751274e-01 2.888169908545388338e-04 2.240170365918073281e-03
1.689999999999999879e-04 1.582907717069566844e-01 3.027354772999506964e-04 2.254509350360745651e-03
1.758999999999999930e-04 1.647661861691531171e-01 3.173785841705756782e-04 2.268169273277113179e-03
1.830000000000000029e-04 1.714298948183871907e-01 3.325196584577469103e-04 2.276170334580628063e-03
1.901999999999999882e-04 1.781880600978280049e-01 3.479577791899843742e-04 2.292561569242367037e-03
1.977000000000000079e-04 1.852284385240466902e-01 3.641242634600037713e-04 2.299943765467868384e-03
2.054000000000000053e-04 1.924572004474696396e-01 3.808304060475003897e-04 2.322187632288155723e-03
2.079000000000000119e-04 1.948043378760714872e-01 3.864137987380476553e-04 2.435429768083530178e-03
2.081999999999999921e-04 1.950859988578999005e-01 3.870314100985603909e-04 1.950065624557156818e-03
2.090999999999999868e-04 1.959309855029948977e-01 3.881261957135444685e-04 6.411875526909013856e-04
2.159999999999999919e-04 2.024093317906446865e-01 3.940874488768042125e-04 1.199166870571831411e-03
2.231000000000000019e-04 2.090756740932291913e-01 4.013938420547467825e-04 9.928616047829054436e-04
2.311000000000000066e-04 2.165873044433437034e-01 4.085241694843774404e-04 9.056166966301716637e-04
2.401000000000000085e-04 2.250381721984245909e-01 4.159700687886608468e-04 8.565463878902855599e-04
2.500000000000000052e-04 2.343344406330727658e-01 4.237602369176299592e-04 8.194318812157330018e-04
2.642999999999999733e-04 2.477629128650125634e-01 4.345596643180389446e-04 7.890063723638815647e-04
3.052999999999999941e-04 2.862671839140227270e-01 4.644058706720978241e-04 7.612775562167708662e-04
3.533000000000000224e-04 3.313503829113090826e-01 4.987577676308450197e-04 7.626578558207241024e-04
4.075999999999999871e-04 3.823564017794535141e-01 5.381334366106255759e-04 7.813048116943254948e-04
4.679999999999999915e-04 4.390986251953180042e-01 5.832692638200615834e-04 8.096035963157804938e-04
5.341000000000000261e-04 5.012024644415256081e-01 6.346556894078133086e-04 8.452514814113673558e-04
6.059000000000000366e-04 5.686690698184251325e-01 6.930641302632923034e-04 8.862253587289389486e-04
7.661000000000000275e-04 7.192254882508629654e-01 8.328184776562496576e-04 9.702780530519144065e-04
1.262000000000000101e-03 1.185459127778160093e+00 1.338484980802662205e-03 1.198863597978450275e-03
1.894999999999999983e-03 1.780909071169781921e+00 2.123481960401060308e-03 1.437771491635827115e-03
2.673000000000000029e-03 2.513147344746868850e+00 3.261860252001994032e-03 1.671524566936786766e-03
3.605999999999999830e-03 3.391736073717691369e+00 4.828136641022434151e-03 1.893900408978071038e-03
4.709999999999999777e-03 4.431905410739045870e+00 6.903512974832482635e-03 2.096551352830673849e-03
7.496000000000000059e-03 7.058993649504918366e+00 1.289742191321638018e-02 2.466596387205546859e-03
1.119999999999999989e-02 1.055540362104863661e+01 2.212077014004794340e-02 2.809304433764861584e-03
1.600000000000000033e-02 1.509117352747679952e+01 3.559566804390756900e-02 3.132325055719984222e-03
2.206999999999999934e-02 2.083310616724802244e+01 5.457322122755020599e-02 3.477840948757840792e-03
2.947999999999999926e-02 2.785007348564149154e+01 8.049103664263126956e-02 3.909302116317729670e-03
4.268000000000000266e-02 4.036707211535221518e+01 1.353887601042819133e-01 4.862066536253286525e-03
6.219999999999999835e-02 5.891246509830522626e+01 2.419691225623893105e-01 6.630786177272363080e-03
7.316999999999999893e-02 6.935151695866235855e+01 3.161896974764099033e-01 7.588671314871411888e-03
7.595999999999999974e-02 7.200836722020332559e+01 3.371250777904805096e-01 8.170805199905812125e-03
7.685877551020407761e-02 7.286441685695618276e+01 3.442158562534325394e-01 8.395464119881120707e-03
7.775755102040816935e-02 7.372055057878482387e+01 3.515066802619191133e-01 8.636500328293304080e-03
7.865632653061224722e-02 7.457676980568632530e+01 3.590113763922209156e-01 8.893335564376842611e-03
7.955510204081632508e-02 7.543307608042231038e+01 3.667432823484574889e-01 9.165391567366228814e-03
8.045387755102040295e-02 7.628947105883490565e+01 3.747152469421207721e-01 9.452090076495946527e-03
8.135265306122449469e-02 7.714595650059432330e+01 3.829396300709714818e-01 9.752852831000484793e-03
8.225142857142857256e-02 7.800253426035538951e+01 3.914283026944349597e-01 1.006710157011431878e-02
8.315020408163265042e-02 7.885920627930080684e+01 4.001926468029156081e-01 1.039425803307194619e-02
8.404897959183672829e-02 7.971597457704908152e+01 4.092435553787019953e-01 1.073374395910784221e-02
8.494775510204082003e-02 8.057284124390827174e+01 4.185914323463804099e-01 1.108498108745650801e-02
8.584653061224489790e-02 8.142980843345729625e+01 4.282461925108951295e-01 1.144739115735241008e-02
8.674530612244897576e-02 8.228687835543713902e+01 4.382172614816052247e-01 1.182039590803004789e-02
8.764408163265305363e-02 8.314405326893540860e+01 4.485135755808790092e-01 1.220341707872390179e-02
8.854285714285714537e-02 8.400133547584995597e+01 4.591435817359520999e-01 1.259587640866846776e-02
8.944163265306122323e-02 8.485872731461665808e+01 4.701152373529428052e-01 1.299719563709821231e-02
9.034040816326530110e-02 8.571623115418745442e+01 4.814360101720799867e-01 1.340679650324763314e-02
9.123918367346939284e-02 8.657384938824731080e+01 4.931128781033424779e-01 1.382410074635121756e-02
9.213795918367347071e-02 8.743158442965665245e+01 5.051523290418524770e-01 1.424853010564344769e-02
9.303673469387754857e-02 8.828943870510929059e+01 5.175603606624959996e-01 1.467950632035880734e-02
9.393551020408162644e-02 8.914741464999401899e+01 5.303424801933602772e-01 1.511645112973179078e-02
9.483428571428570431e-02 9.000551470345142491e+01 5.435037041677004410e-01 1.555878627299686970e-02
9.573306122448979605e-02 9.086374130361512869e+01 5.570485581542499176e-01 1.600593348938855048e-02
9.663183673469387391e-02 9.172209688302909569e+01 5.709810764657923254e-01 1.645731451814129789e-02
9.753061224489795178e-02 9.258058386423294905e+01 5.853048018460109692e-01 1.691235109848960791e-02
9.842938775510204352e-02 9.343920465550677079e+01 6.000227851347152974e-01 1.737046496966796610e-02
9.932816326530612139e-02 9.429796164676805859e+01 6.151375849116350603e-01 1.783107787091085805e-02
1.002269387755101993e-01 9.515685720561441485e+01 6.306512671190511732e-01 1.829361154145276933e-02
1.011257142857142910e-01 9.601589367350413795e+01 6.465654046636037933e-01 1.875748772052819244e-02
1.020244897959183689e-01 9.687507336206925856e+01 6.628810769976941630e-01 1.922212814737159214e-02
1.029232653061224467e-01 9.773439854955468320e+01 6.795988696809651675e-01 1.968695456121747137e-02
1.038220408163265246e-01 9.859387147737773205e+01 6.967188739224020599e-01 2.015138870130031568e-02
1.047208163265306025e-01 9.945349434680265688e+01 7.142406861036637578e-01 2.061485230685460371e-02
1.056195918367346942e-01 1.003132693157256199e+02 7.321634072843081764e-01 2.107676711711483492e-02
1.065183673469387721e-01 1.011731984955644066e+02 7.504856426896283628e-01 2.153655487131547405e-02
1.074171428571428499e-01 1.020332839482487230e+02 7.692055011818740295e-01 2.199363730869102751e-02
1.083159183673469417e-01 1.028935276833069423e+02 7.883205947156725069e-01 2.244743616847597045e-02
1.092146938775510195e-01 1.037539316550447950e+02 8.078280377785184152e-01 2.289737318990478498e-02
1.101134693877550974e-01 1.046144977598124370e+02 8.277244468172441083e-01 2.334287011221196362e-02
1.110122448979591891e-01 1.054752278333558024e+02 8.480059396514201264e-01 2.378334867463199886e-02
1.119110204081632531e-01 1.063361236482491847e+02 8.686681348746800868e-01 2.421823061639935548e-02
1.128097959183673449e-01 1.071971869114050975e+02 8.897061512450082921e-01 2.464693767674853986e-02
1.137085714285714227e-01 1.080584192616588552e+02 9.111146070650454343e-01 2.506889159491403063e-02
1.146073469387755006e-01 1.089198222674247631e+02 9.328876195535326099e-01 2.548351411013030643e-02
1.155061224489795924e-01 1.097813974244202768e+02 9.550188042090195228e-01 2.589022696163187365e-02
1.164048979591836702e-01 1.106431461534563994e+02 9.775012741670100480e-01 2.628845188865319704e-02
1.173036734693877481e-01 1.115050697982917143e+02 1.000327639551751302e+00 2.667761063042876565e-02
1.182024489795918398e-01 1.123671696235462036e+02 1.023490006823888132e+00 2.705712492619306853e-02
1.191012244897959177e-01 1.132294468126747944e+02 1.046979978125247346e+00 2.742641651518059470e-02
1.199999999999999956e-01 1.140919024659956449e+02 1.070788650622039428e+00 2.778490713662583669e-02
1.238883838969917772e-01 1.178252475987359560e+02 1.177267819384804737e+00 2.925677374173300122e-02
1.277767677939835589e-01 1.215620230034153195e+02 1.289402708318375446e+00 3.075957904617969071e-02
1.316651516909753405e-01 1.253022983084244970e+02 1.407318602632113169e+00 3.229180947206360119e-02
1.355535355879671222e-01 1.290461426553652871e+02 1.531135715508818995e+00 3.385193910594527095e-02
1.394419194849589039e-01 1.327936245945530800e+02 1.660969128310320064e+00 3.543843110182443717e-02
1.433303033819506855e-01 1.365448119905595377e+02 1.796928733968204739e+00 3.704973897326732657e-02
1.472186872789424394e-01 1.402997719365122293e+02 1.939119183227859367e+00 3.868430779563310218e-02
1.511070711759342489e-01 1.440585706760668074e+02 2.087639833488037056e+00 4.034057533537135920e-02
1.549954550729260028e-01 1.478212735321276909e+02 2.242584700038610546e+00 4.201697312008657870e-02
1.588838389699178122e-01 1.515879448415301169e+02 2.404042409548432069e+00 4.371192746037293186e-02
1.627722228669095661e-01 1.553586478950042817e+02 2.572096155694994835e+00 4.542386043218402114e-02
1.666606067639013478e-01 1.591334448818442411e+02 2.746823656859862961e+00 4.715119082664800954e-02
1.705489906608931294e-01 1.629123968387770560e+02 2.928297115839327613e+00 4.889233507268930107e-02
1.744373745578849111e-01 1.666955636026000320e+02 3.116583181540074410e+00 5.064570813652505277e-02
1.783257584548766927e-01 1.704830037662104303e+02 3.311742912645165404e+00 5.240972440102052016e-02
1.822141423518684744e-01 1.742747746376992950e+02 3.513831743247407324e+00 5.418279852697756999e-02
1.861025262488602561e-01 1.780709322022255208e+02 3.722899450455580350e+00 5.596334629766389762e-02
1.899909101458520377e-01 1.818715310864197647e+02 3.938990123984611902e+00 5.774978544724628654e-02
1.938792940428438194e-01 1.856766245251007206e+02 4.162142137743959580e+00 5.954053647324478171e-02
1.977676779398356011e-01 1.894862643301130447e+02 4.392388123439578962e+00 6.133402343266531470e-02
2.016560618368273827e-01 1.933005008611149549e+02 4.629754946204150734e+00 6.312867472107729083e-02
2.055444457338191366e-01 1.971193829981700958e+02 4.874263682267975462e+00 6.492292383357183005e-02
2.094328296308109461e-01 2.009429581160099758e+02 5.125929598679326737e+00 6.671521010625597325e-02
2.133212135278027000e-01 2.047712720598492240e+02 5.384762135078155154e+00 6.850397943669814249e-02
2.172095974247945094e-01 2.086043691226512635e+02 5.650764887521226854e+00 7.028768498153770139e-02
2.210979813217862633e-01 2.124422920237511221e+02 5.923935594349744704e+00 7.206478782929522098e-02
2.249863652187780727e-01 2.162850818887486639e+02 6.204266124082976397e+00 7.383375764627328475e-02
2.288747491157698266e-01 2.201327782306023835e+02 6.491742465312677624e+00 7.559307329330582081e-02
2.327631330127616083e-01 2.239854189318505746e+02 6.786344718564108369e+00 7.734122341100647946e-02
2.366515169097533899e-01 2.278430402279020370e+02 7.088047090079345303e+00 7.907670697106548852e-02
2.405399008067451716e-01 2.317056766913368051e+02 7.396817887468296604e+00 8.079803379106330341e-02
2.444282847037369533e-01 2.355733612171658820e+02 7.712619517161652283e+00 8.250372501019090365e-02
2.483166686007287349e-01 2.394461250090027704e+02 8.035408483588474482e+00 8.419231352320191708e-02
2.522050524977205166e-01 2.433239975661009282e+02 8.365135389989024617e+00 8.586234436985842877e-02
2.560934363947122705e-01 2.472070066712130938e+02 8.701744940760850255e+00 8.751237507707870789e-02
2.599818202917040799e-01 2.510951783792356480e+02 9.045175945223116187e+00 8.914097595094103155e-02
2.638702041886958893e-01 2.549885370065990173e+02 9.395361322670636284e+00 9.074673031565058667e-02
2.677585880856876432e-01 2.588871051213626515e+02 9.752228108575227594e+00 9.232823469652882975e-02
2.716469719826793972e-01 2.627909035339867501e+02 1.011569746177756279e+01 9.388409894403890177e-02
2.755353558796712066e-01 2.666999512887381343e+02 1.048568467249795688e+01 9.541294629581806297e-02
2.794237397766629605e-01 2.706142656556997963e+02 1.086209917097940014e+01 9.691341337364180186e-02
2.833121236736547699e-01 2.745338621233480580e+02 1.124484453656062044e+01 9.838415011220372208e-02
2.872005075706465238e-01 2.784587543916633763e+02 1.163381850696083220e+01 9.982381961654793190e-02
2.910888914676382777e-01 2.823889543657399486e+02 1.202891298754181904e+01 1.012310979449496801e-01
2.949772753646300871e-01 2.863244721498574563e+02 1.243001406029600098e+01 1.026046738139931164e-01
2.988656592616218965e-01 2.902653160419823166e+02 1.283700199229228645e+01 1.039432482225503274e-01
3.027540431586136505e-01 2.942114925286575158e+02 1.324975124329410647e+01 1.052455339913200422e-01
3.066424270556054044e-01 2.981630062802473162e+02 1.366813047224623467e+01 1.065102552145371223e-01
3.105308109525972138e-01 3.021198601464955118e+02 1.409200254230897720e+01 1.077361466204175139e-01
3.858261005249932207e-01 3.803953155229356184e+02 2.991509626736268501e+01 2.920536787293775416e-01
4.611213900973891722e-01 4.631174888061880210e+02 6.203247239610766428e+01 4.763712108383374444e-01
5.364166796697851236e-01 5.523163079717347728e+02 1.094767539419695765e+02 5.817335600960357178e-01
6.117119692421810750e-01 6.489908464446161815e+02 1.671077197015587785e+02 6.094620278591590390e-01
6.870072588145770265e-01 7.532052859000118588e+02 2.321243583161386823e+02 6.371904956222824712e-01
7.623025483869730889e-01 8.649643111523898824e+02 3.049475998712251226e+02 6.649189633854059034e-01
8.375978379593691514e-01 9.842813874592419552e+02 3.838709408156486234e+02 6.586851590454695371e-01
9.128931275317651028e-01 1.110356973932925939e+03 4.436937376610432011e+02 3.014130390463107267e-01
9.881884171041610543e-01 1.239843059398026526e+03 4.742698704642832013e+02 1.724082975890375569e-01
1.063483706676557006e+00 1.371676043868574197e+03 5.113538823807532481e+02 3.874165376812970241e-01
1.138778996248952957e+00 1.507064150687591109e+03 5.787193784794028488e+02 6.024247777735566300e-01
1.214074285821348909e+00 1.647853556746115601e+03 6.792472453712578044e+02 8.174330178658161250e-01
1.289369575393744860e+00 1.795851340098756964e+03 8.052783679224896787e+02 8.827447194493163174e-01
1.364664864966141034e+00 1.951663328366326823e+03 9.439237898445098836e+02 8.963455011847136777e-01
1.439960154538536985e+00 2.115376295094539273e+03 1.091608651290370062e+03 9.074104502833054697e-01
1.515255444110932936e+00 2.287044064075629194e+03 1.247439185819889644e+03 9.081111131835634120e-01
1.590550733683328888e+00 2.466637417344992173e+03 1.410590393975064671e+03 9.088117760838213544e-01
1.665846023255724839e+00 2.654127333868316327e+03 1.581046967498022696e+03 9.095124389840792967e-01
1.741141312828120791e+00 2.849486765509458564e+03 1.758795336306447780e+03 9.102131018843372390e-01
1.816436602400516742e+00 3.052690452446898234e+03 1.943823505231720219e+03 9.109137647845951813e-01
1.891731891972912916e+00 3.263702676652225364e+03 2.131009056869310825e+03 8.648665676371363187e-01
1.967027181545308867e+00 3.482001054457839473e+03 2.295755971957980819e+03 6.501384854819078907e-01
2.042322471117704819e+00 3.705698633195995171e+03 2.416790549439834649e+03 4.354104033266794072e-01
2.117617760690100770e+00 3.933119939716054432e+03 2.506612084545948164e+03 3.553309589427374182e-01
