# density  energy_density  pressure   sound_speed_squared  [All in nuclear units]
2.720000000000000022e-14 2.529924618736292620e-11 1.061056609100270887e-19 3.766610435412189122e-08
1.269999999999999890e-13 1.181251617980081254e-10 4.870113551826584858e-18 6.497781477172163475e-08
6.929999999999999754e-13 6.445728594625782745e-10 1.018299070687946017e-16 3.033770597342807186e-07
6.295000000000000137e-12 5.855111460395753757e-09 5.487150723824490656e-15 1.763710043904196507e-06
1.581000000000000150e-11 1.470523320212576141e-08 2.904239460150760759e-14 3.559434472327477622e-06
3.971999999999999958e-11 3.694456170323160790e-08 1.439340266754906811e-13 6.772854871245677111e-06
9.975999999999999982e-11 9.278976412613005154e-08 6.812143616221268841e-13 1.246890511177539320e-05
2.505999999999999928e-10 2.330928829758143313e-07 3.107749196951638608e-12 2.212095130576091967e-05
6.294000000000000186e-10 5.854398883216247602e-07 1.363250409771533549e-11 3.761981047239428883e-05
1.581000000000000021e-09 1.470619631082054101e-06 5.726014178088476303e-11 6.095350986710739404e-05
3.971999999999999932e-09 3.694861084648016046e-06 2.210019573374265380e-10 8.628023653304385055e-05
5.000000000000000105e-09 4.651201787816927976e-06 3.071485916280120014e-10 9.387863480799757518e-05
9.975999999999999465e-09 9.280587964640925786e-06 8.385361004129998845e-10 1.356922228656245837e-04
1.989999999999999952e-08 1.851419242998081003e-05 2.287763168863418088e-09 1.782101978513718314e-04
3.972999999999999908e-08 3.696699295748789187e-05 6.061583099087538954e-09 2.308134738384234820e-04
7.925999999999999637e-08 7.375765469301719828e-05 1.575347858094044765e-08 2.960532096713864875e-04
1.580999999999999930e-07 1.471491184379128891e-04 3.910429618672550719e-08 3.402859755131850544e-04
1.991000000000000027e-07 1.853209783927820692e-04 5.252045687899177454e-08 3.626488188833278743e-04
3.155999999999999938e-07 2.938002528823880299e-04 9.730770378831954314e-08 4.630767356912104081e-04
5.000999999999999849e-07 4.656344063839075714e-04 1.837494945860225819e-07 5.430301232045120323e-04
6.295999999999999732e-07 5.862651417037388971e-04 2.503103884558263872e-07 5.605192962670089638e-04
9.666999999999999941e-07 9.003386739730535665e-04 4.324450868778576936e-07 5.993081670211623108e-04
1.531999999999999901e-06 1.427170885631398036e-03 7.780217275717420968e-07 7.125938556504039095e-04
2.506999999999999883e-06 2.336134972129507662e-03 1.471005394641589826e-06 8.121876172121876309e-04
3.974000000000000407e-06 3.704315759716615697e-03 2.695705763844323844e-06 9.780674166779417152e-04
4.830000000000000343e-06 4.502887798316278223e-03 3.503988717694660908e-06 1.046253037768318664e-03
6.080999999999999885e-06 5.670217999231269741e-03 4.731126407333307547e-06 1.056224360839501646e-03
7.930000000000000308e-06 7.396012414119570652e-03 6.599662989063778187e-06 1.109203753630785610e-03
9.982000000000000313e-06 9.311815711689977113e-03 8.879881089227186733e-06 1.271216815433141075e-03
1.256999999999999993e-05 1.172874412604260098e-02 1.207676739913533738e-05 1.374195438212825332e-03
1.521999999999999997e-05 1.420427250933824909e-02 1.547541302213394990e-05 1.371610497379100249e-03
1.991000000000000080e-05 1.858690797761085312e-02 2.160710455847765458e-05 1.426578142835871997e-03
2.506999999999999883e-05 2.341050104039446925e-02 2.908031724375689851e-05 1.672007475975408053e-03
2.790999999999999875e-05 2.606604784714952258e-02 3.357009132255487721e-05 1.709425557744154774e-03
3.806999999999999973e-05 3.556967988784798945e-02 4.986781576435106434e-05 1.720407281314112165e-03
5.063000000000000145e-05 4.732434580343149871e-02 7.073400252905581275e-05 1.829889149838781265e-03
6.592000000000000583e-05 6.164112392498975052e-02 9.765037643900635188e-05 1.930242980462695823e-03
8.433000000000000066e-05 7.888776783401378612e-02 1.317235490470395893e-04 2.021055815200022837e-03
1.062000000000000064e-04 9.938561165478684845e-02 1.740088341640037047e-04 2.104789529260958983e-03
1.321000000000000126e-04 1.236720406455826121e-01 2.260189757651373944e-04 2.178291718403657477e-03
1.623999999999999901e-04 1.520974545104751274e-01 2.888169908545388338e-04 2.240170365918073281e-03
1.689999999999999879e-04 1.582907717069566844e-01 3.027354772999506964e-04 2.254509350360745651e-03
1.758999999999999930e-04 1.647661861691531171e-01 3.173785841705756782e-04 2.268169273277113179e-03
1.830000000000000029e-04 1.714298948183871907e-01 3.325196584577469103e-04 2.276170334580628063e-03
1.901999999999999882e-04 1.781880600978280049e-01 3.479577791899843742e-04 2.292561569242367037e-03
1.977000000000000079e-04 1.852284385240466902e-01 3.641242634600037713e-04 2.299943765467868384e-03
2.054000000000000053e-04 1.924572004474696396e-01 3.808304060475003897e-04 2.322187632288155723e-03
2.079000000000000119e-04 1.948043378760714872e-01 3.864137987380476553e-04 2.435429768083530178e-03
2.081999999999999921e-04 1.950859988578999005e-01 3.870314100985603909e-04 1.950065624557156818e-03
2.090999999999999868e-04 1.959309855029948977e-01 3.881261957135444685e-04 6.411875526909013856e-04
2.159999999999999919e-04 2.024093317906446865e-01 3.940874488768042125e-04 1.199166870571831411e-03
2.231000000000000019e-04 2.090756740932291913e-01 4.013938420547467825e-04 9.928616047829054436e-04
2.311000000000000066e-04 2.165873044433437034e-01 4.085241694843774404e-04 9.056166966301716637e-04
2.401000000000000085e-04 2.250381721984245909e-01 4.159700687886608468e-04 8.565463878902855599e-04
2.500000000000000052e-04 2.343344406330727658e-01 4.237602369176299592e-04 8.194318812157330018e-04
2.642999999999999733e-04 2.477629128650125634e-01 4.345596643180389446e-04 7.890063723638815647e-04
3.052999999999999941e-04 2.862671839140227270e-01 4.644058706720978241e-04 7.612775562167708662e-04
3.533000000000000224e-04 3.313503829113090826e-01 4.987577676308450197e-04 7.626578558207241024e-04
4.075999999999999871e-04 3.823564017794535141e-01 5.381334366106255759e-04 7.813048116943254948e-04
4.679999999999999915e-04 4.390986251953180042e-01 5.832692638200615834e-04 8.096035963157804938e-04
5.341000000000000261e-04 5.012024644415256081e-01 6.346556894078133086e-04 8.452514814113673558e-04
6.059000000000000366e-04 5.686690698184251325e-01 6.930641302632923034e-04 8.862253587289389486e-04
7.661000000000000275e-04 7.192254882508629654e-01 8.328184776562496576e-04 9.702780530519144065e-04
1.262000000000000101e-03 1.185459127778160093e+00 1.338484980802662205e-03 1.198863597978450275e-03
1.894999999999999983e-03 1.780909071169781921e+00 2.123481960401060308e-03 1.437771491635827115e-03
2.673000000000000029e-03 2.513147344746868850e+00 3.261860252001994032e-03 1.671524566936786766e-03
3.605999999999999830e-03 3.391736073717691369e+00 4.828136641022434151e-03 1.893900408978071038e-03
4.709999999999999777e-03 4.431905410739045870e+00 6.903512974832482635e-03 2.096551352830673849e-03
7.496000000000000059e-03 7.058993649504918366e+00 1.289742191321638018e-02 2.466596387205546859e-03
1.119999999999999989e-02 1.055540362104863661e+01 2.212077014004794340e-02 2.809304433764861584e-03
1.600000000000000033e-02 1.509117352747679952e+01 3.559566804390756900e-02 3.132325055719984222e-03
2.206999999999999934e-02 2.083310616724802244e+01 5.457322122755020599e-02 3.477840948757840792e-03
2.947999999999999926e-02 2.785007348564149154e+01 8.049103664263126956e-02 3.909302116317729670e-03
4.268000000000000266e-02 4.036707211535221518e+01 1.353887601042819133e-01 4.862066536253286525e-03
6.219999999999999835e-02 5.891246509830522626e+01 2.419691225623893105e-01 6.630786177272363080e-03
7.316999999999999893e-02 6.935151695866235855e+01 3.161896974764099033e-01 7.588671314871411888e-03
7.595999999999999974e-02 7.200836722020332559e+01 3.371250777904805096e-01 8.170805199905812125e-03
7.685877551020407761e-02 7.286441677673255413e+01 3.442021271907678148e-01 8.363391867825994627e-03
7.775755102040816935e-02 7.372055004583928906e+01 3.514427478003201433e-01 8.551304879685302923e-03
7.865632653061224722e-02 7.457676792820687695e+01 3.588430449861276239e-01 8.734701659245856786e-03
7.955510204081632508e-02 7.543307126018852671e+01 3.663992576857562633e-01 8.913739630269786399e-03
8.045387755102040295e-02 7.628946081749639063e+01 3.741077584245725007e-01 9.088576216519218473e-03
8.135265306122449469e-02 7.714593731872729165e+01 3.819650533387191627e-01 9.259368841756284926e-03
8.225142857142857256e-02 7.800250142873177595e+01 3.899677822033377206e-01 9.426274929743102063e-03
8.315020408163265042e-02 7.885915376183723424e+01 3.981127184655737228e-01 9.589451904241805269e-03
8.404897959183672829e-02 7.971589488493117415e+01 4.063967692819339117e-01 9.749057189014517788e-03
8.494775510204082003e-02 8.057272532041358204e+01 4.148169755595996211e-01 9.905248207823371537e-03
8.584653061224489790e-02 8.142964554902448526e+01 4.233705120013299683e-01 1.005818238443048629e-02
8.674530612244897576e-02 8.228665601255382001e+01 4.320546871536201095e-01 1.020801714259799049e-02
8.764408163265305363e-02 8.314375711643920397e+01 4.408669434578011415e-01 1.035490990608801606e-02
8.854285714285714537e-02 8.400094923225795185e+01 4.498048573037991549e-01 1.049901809866268451e-02
8.944163265306122323e-02 8.485823270011832165e+01 4.588661390862898704e-01 1.064049914408412428e-02
9.034040816326530110e-02 8.571560783095507929e+01 4.680486332630103830e-01 1.077951046611446383e-02
9.123918367346939284e-02 8.657307490873459699e+01 4.773503184150066359e-01 1.091620948851582638e-02
9.213795918367347071e-02 8.743063419257354951e+01 4.867693073086162836e-01 1.105075363505034387e-02
9.303673469387754857e-02 8.828828591877511656e+01 4.963038469590060897e-01 1.118330032948014127e-02
9.393551020408162644e-02 8.914603030278807694e+01 5.059523186950949381e-01 1.131400699556734356e-02
9.483428571428570431e-02 9.000386754109041476e+01 5.157132382257141323e-01 1.144303105707407398e-02
9.573306122448979605e-02 9.086179781300315028e+01 5.255852557068688702e-01 1.157052993776247138e-02
9.663183673469387391e-02 9.171982128243585919e+01 5.355671558099784901e-01 1.169666106139465207e-02
9.753061224489795178e-02 9.257793809956849884e+01 5.456578577909891870e-01 1.182158185173274277e-02
9.842938775510204352e-02 9.343614840247154518e+01 5.558564155602592205e-01 1.194544973253888233e-02
9.932816326530612139e-02 9.429445231866758093e+01 5.661620177531342391e-01 1.206842212757518532e-02
1.002269387755101993e-01 9.515284996663721984e+01 5.765739878011392205e-01 1.219065646060377844e-02
1.011257142857142910e-01 9.601134145727175451e+01 5.870917840037209734e-01 1.231231015538680057e-02
1.020244897959183689e-01 9.686992689527389189e+01 5.977149996004882393e-01 1.243354063568636626e-02
1.029232653061224467e-01 9.772860638051132298e+01 6.084433628439060993e-01 1.255450532526460397e-02
1.038220408163265246e-01 9.858738000932204670e+01 6.192767370724049369e-01 1.267536164788364561e-02
1.047208163265306025e-01 9.944624787577623692e+01 6.302151207838790903e-01 1.279626702730561442e-02
1.056195918367346942e-01 1.003052100728948091e+02 6.412586477095527648e-01 1.291737888729264580e-02
1.065183673469387721e-01 1.011642666938275283e+02 6.524075868881997753e-01 1.303885465160685257e-02
1.074171428571428499e-01 1.020234178329917825e+02 6.636623427407135623e-01 1.316085174401037013e-02
1.083159183673469417e-01 1.028826635871737665e+02 6.750234551450240428e-01 1.328352758826532344e-02
1.092146938775510195e-01 1.037420040565939843e+02 6.864915995113690661e-01 1.340703960813384096e-02
1.101134693877550974e-01 1.046014393459381324e+02 6.980675868579353516e-01 1.353154522737804767e-02
1.110122448979591891e-01 1.054609695653550006e+02 7.097523638868825646e-01 1.365720186976007201e-02
1.119110204081632531e-01 1.063205948314223548e+02 7.215470130607756216e-01 1.378416695904204070e-02
1.128097959183673449e-01 1.071803152680834756e+02 7.334527526794561991e-01 1.391259791898607524e-02
1.137085714285714227e-01 1.080401310075526595e+02 7.454709369573789823e-01 1.404265217335431276e-02
1.146073469387755006e-01 1.089000421911946148e+02 7.576030561014598375e-01 1.417448714590887129e-02
1.155061224489795924e-01 1.097600489703755926e+02 7.698507363894696587e-01 1.430826026041188276e-02
1.164048979591836702e-01 1.106201515072888242e+02 7.822157402490235167e-01 1.444412894062546693e-02
1.173036734693877481e-01 1.114803499757559422e+02 7.946999663372155132e-01 1.458225061031176439e-02
1.182024489795918398e-01 1.123406445620032486e+02 8.073054496209510766e-01 1.472278269323289319e-02
1.191012244897959177e-01 1.132010354654155293e+02 8.200343614580334339e-01 1.486588261315097484e-02
1.199999999999999956e-01 1.140615228992684109e+02 8.328890096790688702e-01 1.501170779382814818e-02
1.223383750810927012e-01 1.163007377841962864e+02 8.669472844534777956e-01 1.540808349452896589e-02
1.246767501621854068e-01 1.185406126073751096e+02 9.019445019625896842e-01 1.584112795342932506e-02
1.270151252432781264e-01 1.207811533933882089e+02 9.379656367355028168e-01 1.631278012462301225e-02
1.293535003243708181e-01 1.230223675505518770e+02 9.751001466400549544e-01 1.682500696028162851e-02
1.316918754054635377e-01 1.252642638775690500e+02 1.013442045916907785e+00 1.737980388973121154e-02
1.340302504865562294e-01 1.275068525710218807e+02 1.053089980089737754e+00 1.797919525409488392e-02
1.363686255676489489e-01 1.297501452336654211e+02 1.094147302719748804e+00 1.862523469654917690e-02
1.387070006487416407e-01 1.319941548834826222e+02 1.136722153975086247e+00 1.932000550807196071e-02
1.410453757298343602e-01 1.342388959634681100e+02 1.180927540987861235e+00 2.006562092839994996e-02
1.433837508109270797e-01 1.364843843521094300e+02 1.226881419973305576e+00 2.086422440176672471e-02
1.457221258920197715e-01 1.387306373745373378e+02 1.274706780087204727e+00 2.171798978685510195e-02
1.480605009731124633e-01 1.409776738143189618e+02 1.324531728999106761e+00 2.262912152027067234e-02
1.503988760542051828e-01 1.432255139258708994e+02 1.376489580159973025e+00 2.359985473272411052e-02
1.527372511352979023e-01 1.454741794474686571e+02 1.430718941743901018e+00 2.463245531699817525e-02
1.550756262163905941e-01 1.477236936148329107e+02 1.487363807244324487e+00 2.572921994667203699e-02
1.574140012974833136e-01 1.499740811752756713e+02 1.546573647705689281e+00 2.689247604447794759e-02
1.597523763785760054e-01 1.522253684023849871e+02 1.608503505572022263e+00 2.812458169907465153e-02
1.620907514596687249e-01 1.544775831112363562e+02 1.673314090134099708e+00 2.942792552893840410e-02
1.644291265407614167e-01 1.567307546741126316e+02 1.741171874556990629e+00 3.080492649199343541e-02
1.667675016218541362e-01 1.589849140367211646e+02 1.812249194469755409e+00 3.225803363953308467e-02
1.691058767029468557e-01 1.612400937348925538e+02 1.886724348098845372e+00 3.378972581291649069e-02
1.714442517840395475e-01 1.634963279117512513e+02 1.964781697926465398e+00 3.540251128146698623e-02
1.737826268651322392e-01 1.657536523353440998e+02 2.046611773854678074e+00 3.709892731994542808e-02
1.761210019462249587e-01 1.680121044167191542e+02 2.132411377855436108e+00 3.888153972392523888e-02
1.784593770273176783e-01 1.702717232284410045e+02 2.222383690086025876e+00 4.075294226135756787e-02
1.807977521084103700e-01 1.725325495235351809e+02 2.316738376448558068e+00 4.271575605858091151e-02
1.831361271895030896e-01 1.747946257548531435e+02 2.415691697571189955e+00 4.477262891900730957e-02
1.854745022705958091e-01 1.770579960948454925e+02 2.519466619187666900e+00 4.692623457269659570e-02
1.878128773516885008e-01 1.793227064557399331e+02 2.628292923890637400e+00 4.917927185502442289e-02
1.901512524327811926e-01 1.815888045101114585e+02 2.742407324232860599e+00 5.153446381264621678e-02
1.924896275138739121e-01 1.838563397118395528e+02 2.862053577149057393e+00 5.399455673496869612e-02
1.948280025949666316e-01 1.861253633174432593e+02 2.987482599669662342e+00 5.656231910935633628e-02
1.971663776760593234e-01 1.883959284077889720e+02 3.118952585896165974e+00 5.924054049832857410e-02
1.995047527571520152e-01 1.906680899101604325e+02 3.256729125206046405e+00 6.203203033703739988e-02
2.018431278382447347e-01 1.929419046206866994e+02 3.401085321653542604e+00 6.493961664936420686e-02
2.041815029193374542e-01 1.952174312271194481e+02 3.552301914530693772e+00 6.796614468103068241e-02
2.065198780004301460e-01 1.974947303319527521e+02 3.710667400051172571e+00 7.111447544818859379e-02
2.088582530815228655e-01 1.997738644758802877e+02 3.876478154117448227e+00 7.438748420003199469e-02
2.111966281626155850e-01 2.020548981615791604e+02 4.050038556129775813e+00 7.778805879406960888e-02
2.135350032437082768e-01 2.043378978778182500e+02 4.231661113793459883e+00 8.131909798279710055e-02
2.158733783248009686e-01 2.066229321238796501e+02 4.421666588878658821e+00 8.498350961062944853e-02
2.182117534058936881e-01 2.089100714342896481e+02 4.620384123884827332e+00 8.878420872008038756e-02
2.205501284869864076e-01 2.111993884038503211e+02 4.828151369559686934e+00 9.272411556632094431e-02
2.228885035680790994e-01 2.134909577129644731e+02 5.045314613220380551e+00 9.680615353940699719e-02
2.252268786491717911e-01 2.157848561532481426e+02 5.272228907822190003e+00 1.010332469936329053e-01
2.275652537302645106e-01 2.180811626534212451e+02 5.509258201717912584e+00 1.054083189836563239e-01
2.299036288113572302e-01 2.203799583054713480e+02 5.756775469048744043e+00 1.099342889072347784e-01
2.322420038924499219e-01 2.226813263910794660e+02 6.015162840705238878e+00 1.146140700546272317e-01
2.345803789735426415e-01 2.249853524083039531e+02 6.284811735794660237e+00 1.194505670649419482e-01
3.114256773618376828e-01 3.027955850841364622e+02 2.128630869903030387e+01 2.620203203994089236e-01
3.882709757501327519e-01 3.856958746337254524e+02 4.917409589312906348e+01 4.045900737338758990e-01
4.651162741384278210e-01 4.753670834785214083e+02 9.054937603718903461e+01 5.126062425169658487e-01
5.419615725267228346e-01 5.728473300743728487e+02 1.431635819641995795e+02 5.644000683017823539e-01
6.188068709150179592e-01 6.775246743804566449e+02 1.821965586618861721e+02 1.945044802846725429e-01
6.956521693033129727e-01 7.859831845492012690e+02 2.137477853404674875e+02 3.833609246031111084e-01
7.724974676916080973e-01 8.990237877861706011e+02 2.681346764938224396e+02 5.722173689215499515e-01
8.493427660799031109e-01 1.018592679624158905e+03 3.484188227220435010e+02 7.610738132399885725e-01
9.261880644681981245e-01 1.146582129990486237e+03 4.542440308041980757e+02 8.848035628931105734e-01
1.003033362856493138e+00 1.284187380722114540e+03 5.655595396804800430e+02 7.417147942649801040e-01
1.079878661244788152e+00 1.429776920124639219e+03 6.626836163464641913e+02 5.986260256368496346e-01
1.156723959633083165e+00 1.581644934750376251e+03 7.424183515428813962e+02 4.555372570087192208e-01
1.233569258021378401e+00 1.738126905457944758e+03 8.023083960172397155e+02 3.124484883805883628e-01
1.310414556409673414e+00 1.897637956080792719e+03 8.406295911147922197e+02 1.693597197524578934e-01
1.387259854797968428e+00 2.058821006732096976e+03 8.607797691098209043e+02 8.103159418621085075e-02
1.464105153186263442e+00 2.221312626639695736e+03 8.925729712577921191e+02 3.088756426624026385e-01
1.540950451574558455e+00 2.386344251308291859e+03 9.626322662533400489e+02 5.367196911385945235e-01
1.617795749962853469e+00 2.555746470789465548e+03 1.073349397851825870e+03 7.645637396147864084e-01
1.694641048351148704e+00 2.731267832779792570e+03 1.210693589943707138e+03 7.993811203834222390e-01
1.771486346739443718e+00 2.913177207342640031e+03 1.343382952711835060e+03 6.633659594987364461e-01
1.848331645127738732e+00 3.100480029940504210e+03 1.468954399367948099e+03 6.772179340649575607e-01
1.925176943516033745e+00 3.293132004245648659e+03 1.600780756018678858e+03 6.910699086311787864e-01
2.002022241904328759e+00 3.491172725418943628e+03 1.739037863942064178e+03 7.049218831974000121e-01
2.078867540292623772e+00 3.694645582704589287e+03 1.883905912390217964e+03 7.187738577636212378e-01
