# density  energy_density  pressure   sound_speed_squared  [All in nuclear units]
2.720000000000000022e-14 2.529924618736292620e-11 1.061056609100270887e-19 3.766610435412189122e-08
1.269999999999999890e-13 1.181251617980081254e-10 4.870113551826584858e-18 6.497781477172163475e-08
6.929999999999999754e-13 6.445728594625782745e-10 1.018299070687946017e-16 3.033770597342807186e-07
6.295000000000000137e-12 5.855111460395753757e-09 5.487150723824490656e-15 1.763710043904196507e-06
1.581000000000000150e-11 1.470523320212576141e-08 2.904239460150760759e-14 3.559434472327477622e-06
3.971999999999999958e-11 3.694456170323160790e-08 1.439340266754906811e-13 6.772854871245677111e-06
9.975999999999999982e-11 9.278976412613005154e-08 6.812143616221268841e-13 1.246890511177539320e-05
2.505999999999999928e-10 2.330928829758143313e-07 3.107749196951638608e-12 2.212095130576091967e-05
6.294000000000000186e-10 5.854398883216247602e-07 1.363250409771533549e-11 3.761981047239428883e-05
1.581000000000000021e-09 1.470619631082054101e-06 5.726014178088476303e-11 6.095350986710739404e-05
3.971999999999999932e-09 3.694861084648016046e-06 2.210019573374265380e-10 8.628023653304385055e-05
5.000000000000000105e-09 4.651201787816927976e-06 3.071485916280120014e-10 9.387863480799757518e-05
9.975999999999999465e-09 9.280587964640925786e-06 8.385361004129998845e-10 1.356922228656245837e-04
1.989999999999999952e-08 1.851419242998081003e-05 2.287763168863418088e-09 1.782101978513718314e-04
3.972999999999999908e-08 3.696699295748789187e-05 6.061583099087538954e-09 2.308134738384234820e-04
7.925999999999999637e-08 7.375765469301719828e-05 1.575347858094044765e-08 2.960532096713864875e-04
1.580999999999999930e-07 1.471491184379128891e-04 3.910429618672550719e-08 3.402859755131850544e-04
1.991000000000000027e-07 1.853209783927820692e-04 5.252045687899177454e-08 3.626488188833278743e-04
3.155999999999999938e-07 2.938002528823880299e-04 9.730770378831954314e-08 4.630767356912104081e-04
5.000999999999999849e-07 4.656344063839075714e-04 1.837494945860225819e-07 5.430301232045120323e-04
6.295999999999999732e-07 5.862651417037388971e-04 2.503103884558263872e-07 5.605192962670089638e-04
9.666999999999999941e-07 9.003386739730535665e-04 4.324450868778576936e-07 5.993081670211623108e-04
1.531999999999999901e-06 1.427170885631398036e-03 7.780217275717420968e-07 7.125938556504039095e-04
2.506999999999999883e-06 2.336134972129507662e-03 1.471005394641589826e-06 8.121876172121876309e-04
3.974000000000000407e-06 3.704315759716615697e-03 2.695705763844323844e-06 9.780674166779417152e-04
4.830000000000000343e-06 4.502887798316278223e-03 3.503988717694660908e-06 1.046253037768318664e-03
6.080999999999999885e-06 5.670217999231269741e-03 4.731126407333307547e-06 1.056224360839501646e-03
7.930000000000000308e-06 7.396012414119570652e-03 6.599662989063778187e-06 1.109203753630785610e-03
9.982000000000000313e-06 9.311815711689977113e-03 8.879881089227186733e-06 1.271216815433141075e-03
1.256999999999999993e-05 1.172874412604260098e-02 1.207676739913533738e-05 1.374195438212825332e-03
1.521999999999999997e-05 1.420427250933824909e-02 1.547541302213394990e-05 1.371610497379100249e-03
1.991000000000000080e-05 1.858690797761085312e-02 2.160710455847765458e-05 1.426578142835871997e-03
2.506999999999999883e-05 2.341050104039446925e-02 2.908031724375689851e-05 1.672007475975408053e-03
2.790999999999999875e-05 2.606604784714952258e-02 3.357009132255487721e-05 1.709425557744154774e-03
3.806999999999999973e-05 3.556967988784798945e-02 4.986781576435106434e-05 1.720407281314112165e-03
5.063000000000000145e-05 4.732434580343149871e-02 7.073400252905581275e-05 1.829889149838781265e-03
6.592000000000000583e-05 6.164112392498975052e-02 9.765037643900635188e-05 1.930242980462695823e-03
8.433000000000000066e-05 7.888776783401378612e-02 1.317235490470395893e-04 2.021055815200022837e-03
1.062000000000000064e-04 9.938561165478684845e-02 1.740088341640037047e-04 2.104789529260958983e-03
1.321000000000000126e-04 1.236720406455826121e-01 2.260189757651373944e-04 2.178291718403657477e-03
1.623999999999999901e-04 1.520974545104751274e-01 2.888169908545388338e-04 2.240170365918073281e-03
1.689999999999999879e-04 1.582907717069566844e-01 3.027354772999506964e-04 2.254509350360745651e-03
1.758999999999999930e-04 1.647661861691531171e-01 3.173785841705756782e-04 2.268169273277113179e-03
1.830000000000000029e-04 1.714298948183871907e-01 3.325196584577469103e-04 2.276170334580628063e-03
1.901999999999999882e-04 1.781880600978280049e-01 3.479577791899843742e-04 2.292561569242367037e-03
1.977000000000000079e-04 1.852284385240466902e-01 3.641242634600037713e-04 2.299943765467868384e-03
2.054000000000000053e-04 1.924572004474696396e-01 3.808304060475003897e-04 2.322187632288155723e-03
2.079000000000000119e-04 1.948043378760714872e-01 3.864137987380476553e-04 2.435429768083530178e-03
2.081999999999999921e-04 1.950859988578999005e-01 3.870314100985603909e-04 1.950065624557156818e-03
2.090999999999999868e-04 1.959309855029948977e-01 3.881261957135444685e-04 6.411875526909013856e-04
2.159999999999999919e-04 2.024093317906446865e-01 3.940874488768042125e-04 1.199166870571831411e-03
2.231000000000000019e-04 2.090756740932291913e-01 4.013938420547467825e-04 9.928616047829054436e-04
2.311000000000000066e-04 2.165873044433437034e-01 4.085241694843774404e-04 9.056166966301716637e-04
2.401000000000000085e-04 2.250381721984245909e-01 4.159700687886608468e-04 8.565463878902855599e-04
2.500000000000000052e-04 2.343344406330727658e-01 4.237602369176299592e-04 8.194318812157330018e-04
2.642999999999999733e-04 2.477629128650125634e-01 4.345596643180389446e-04 7.890063723638815647e-04
3.052999999999999941e-04 2.862671839140227270e-01 4.644058706720978241e-04 7.612775562167708662e-04
3.533000000000000224e-04 3.313503829113090826e-01 4.987577676308450197e-04 7.626578558207241024e-04
4.075999999999999871e-04 3.823564017794535141e-01 5.381334366106255759e-04 7.813048116943254948e-04
4.679999999999999915e-04 4.390986251953180042e-01 5.832692638200615834e-04 8.096035963157804938e-04
5.341000000000000261e-04 5.012024644415256081e-01 6.346556894078133086e-04 8.452514814113673558e-04
6.059000000000000366e-04 5.686690698184251325e-01 6.930641302632923034e-04 8.862253587289389486e-04
7.661000000000000275e-04 7.192254882508629654e-01 8.328184776562496576e-04 9.702780530519144065e-04
1.262000000000000101e-03 1.185459127778160093e+00 1.338484980802662205e-03 1.198863597978450275e-03
1.894999999999999983e-03 1.780909071169781921e+00 2.123481960401060308e-03 1.437771491635827115e-03
2.673000000000000029e-03 2.513147344746868850e+00 3.261860252001994032e-03 1.671524566936786766e-03
3.605999999999999830e-03 3.391736073717691369e+00 4.828136641022434151e-03 1.893900408978071038e-03
4.709999999999999777e-03 4.431905410739045870e+00 6.903512974832482635e-03 2.096551352830673849e-03
7.496000000000000059e-03 7.058993649504918366e+00 1.289742191321638018e-02 2.466596387205546859e-03
1.119999999999999989e-02 1.055540362104863661e+01 2.212077014004794340e-02 2.809304433764861584e-03
1.600000000000000033e-02 1.509117352747679952e+01 3.559566804390756900e-02 3.132325055719984222e-03
2.206999999999999934e-02 2.083310616724802244e+01 5.457322122755020599e-02 3.477840948757840792e-03
2.947999999999999926e-02 2.785007348564149154e+01 8.049103664263126956e-02 3.909302116317729670e-03
4.268000000000000266e-02 4.036707211535221518e+01 1.353887601042819133e-01 4.862066536253286525e-03
6.219999999999999835e-02 5.891246509830522626e+01 2.419691225623893105e-01 6.630786177272363080e-03
7.316999999999999893e-02 6.935151695866235855e+01 3.161896974764099033e-01 7.588671314871411888e-03
7.595999999999999974e-02 7.200836722020332559e+01 3.371250777904805096e-01 8.170805199905812125e-03
7.685877551020407761e-02 7.286441681624951627e+01 3.442088898692853838e-01 8.379190058572160912e-03
7.775755102040816935e-02 7.372055030876492765e+01 3.514743097717784592e-01 8.593434182534057802e-03
7.865632653061224722e-02 7.457676885630090169e+01 3.589263910537650593e-01 8.813517031319871922e-03
7.955510204081632508e-02 7.543307364859329311e+01 3.665701722078159031e-01 9.039418064457991481e-03
8.045387755102040295e-02 7.628946590533548999e+01 3.744106767140482073e-01 9.271116741476789075e-03
8.135265306122449469e-02 7.714594687500728298e+01 3.824529130915558794e-01 9.508592521904652914e-03
8.225142857142857256e-02 7.800251783375487946e+01 3.907018749504185817e-01 9.751824865269948656e-03
8.315020408163265042e-02 7.885918008432210513e+01 3.991625410442278810e-01 1.000079323110106451e-02
8.404897959183672829e-02 7.971593495502700932e+01 4.078398753230670915e-01 1.025547707892637481e-02
8.494775510204082003e-02 8.057278379878361818e+01 4.167388269868912420e-01 1.051585586827426602e-02
8.584653061224489790e-02 8.142972799216505564e+01 4.258643305392513789e-01 1.078190905867310555e-02
8.674530612244897576e-02 8.228676893450720797e+01 4.352213058413165192e-01 1.105361610965128159e-02
8.764408163265305363e-02 8.314390804704940763e+01 4.448146581661427956e-01 1.133095648073717022e-02
8.854285714285714537e-02 8.400114677211122682e+01 4.546492782531486032e-01 1.161390963145915271e-02
8.944163265306122323e-02 8.485848657230351932e+01 4.647300423627518939e-01 1.190245502134560339e-02
9.034040816326530110e-02 8.571592892977095346e+01 4.750618123311330931e-01 1.219657210992490179e-02
9.123918367346939284e-02 8.657347534546622114e+01 4.856494356250843358e-01 1.249624035672543092e-02
9.213795918367347071e-02 8.743112733845246964e+01 4.964977453969109944e-01 1.280143922127556511e-02
9.303673469387754857e-02 8.828888644523419771e+01 5.076115605393548558e-01 1.311214816310368216e-02
9.393551020408162644e-02 8.914675421911420017e+01 5.189956857405044754e-01 1.342834664173817548e-02
9.483428571428570431e-02 9.000473222957566577e+01 5.306549115386665072e-01 1.375001411670739859e-02
9.573306122448979605e-02 9.086282206168814923e+01 5.425940143771694757e-01 1.407713004753975532e-02
9.663183673469387391e-02 9.172102531553670701e+01 5.548177566590730692e-01 1.440967389376360958e-02
9.753061224489795178e-02 9.257934360567240617e+01 5.673308868017616913e-01 1.474762511490734437e-02
9.842938775510204352e-02 9.343777856058368059e+01 5.801381392913946833e-01 1.509096317049934445e-02
9.932816326530612139e-02 9.429633182218775289e+01 5.932442347371936764e-01 1.543966752006797720e-02
1.002269387755101993e-01 9.515500504534057313e+01 6.066538799255484227e-01 1.579371762314162736e-02
1.011257142857142910e-01 9.601379989736497578e+01 6.203717678739169017e-01 1.615309293924868661e-02
1.020244897959183689e-01 9.687271805759637289e+01 6.344025778845046037e-01 1.651777292791750673e-02
1.029232653061224467e-01 9.773176121694444873e+01 6.487509755977054482e-01 1.688773704867648287e-02
1.038220408163265246e-01 9.859093107747079898e+01 6.634216130452856852e-01 1.726296476105399630e-02
1.047208163265306025e-01 9.945022935198198866e+01 6.784191287032967921e-01 1.764343552457842135e-02
1.056195918367346942e-01 1.003096577636363946e+02 6.937481475447028201e-01 1.802912879877814276e-02
1.065183673469387721e-01 1.011692180455654864e+02 7.094132810917053167e-01 1.842002404318153139e-02
1.074171428571428499e-01 1.020289119405081379e+02 7.254191274677580514e-01 1.881610071731696504e-02
1.083159183673469417e-01 1.028887412004573463e+02 7.417702714492525606e-01 1.921733828071282846e-02
1.092146938775510195e-01 1.037487075863193837e+02 7.584712845168664064e-01 1.962371619289750638e-02
1.101134693877550974e-01 1.046088128675846463e+02 7.755267249065636026e-01 2.003521391339935925e-02
1.110122448979591891e-01 1.054690588220094440e+02 7.929411376602332195e-01 2.045181090174678917e-02
1.119110204081632531e-01 1.063294472353085069e+02 8.107190546759571737e-01 2.087348661746815659e-02
1.128097959183673449e-01 1.071899799008580061e+02 8.288649947579026511e-01 2.130022052009184624e-02
1.137085714285714227e-01 1.080506586194084662e+02 8.473834636658187369e-01 2.173199206914623594e-02
1.146073469387755006e-01 1.089114851988063748e+02 8.662789541641424673e-01 2.216878072415971387e-02
1.155061224489795924e-01 1.097724614537262084e+02 8.855559460706949881e-01 2.261056594466065092e-02
1.164048979591836702e-01 1.106335892054101464e+02 9.052189063049652651e-01 2.305732719017742141e-02
1.173036734693877481e-01 1.114948702814165387e+02 9.252722889359751290e-01 2.350904392023841702e-02
1.182024489795918398e-01 1.123563065153762608e+02 9.457205352297146650e-01 2.396569559437200861e-02
1.191012244897959177e-01 1.132178997467575670e+02 9.665680736961431707e-01 2.442726167210657051e-02
1.199999999999999956e-01 1.140796518206371530e+02 9.878193201357532427e-01 2.489372161297049094e-02
1.219271650039595312e-01 1.159279766460027759e+02 1.034767888349967357e+00 2.590730472971152290e-02
1.238543300079190806e-01 1.177770584990640685e+02 1.083617209725736386e+00 2.692880625376102913e-02
1.257814950118786301e-01 1.196269153032502146e+02 1.134383535830835399e+00 2.795776278280120292e-02
1.277086600158381657e-01 1.214775646757812098e+02 1.187082337258167808e+00 2.899372425726024632e-02
1.296358250197977013e-01 1.233290239299166302e+02 1.241728326418766404e+00 3.003625390649865626e-02
1.315629900237572369e-01 1.251813100774078862e+02 1.298335480199745984e+00 3.108492818722503187e-02
1.334901550277168003e-01 1.270344398311383003e+02 1.356917062480176517e+00 3.213933671475868031e-02
1.354173200316763359e-01 1.288884296079338299e+02 1.417485646498656937e+00 3.319908218773021807e-02
1.373444850356358715e-01 1.307432955315324534e+02 1.480053137067176561e+00 3.426378030678963599e-02
1.392716500395954071e-01 1.325990534356962769e+02 1.544630792626562998e+00 3.533305968786514678e-02
1.411988150435549705e-01 1.344557188674559711e+02 1.611229247139554399e+00 3.640656177049337444e-02
1.431259800475145061e-01 1.363133070904755186e+02 1.679858531818178902e+00 3.748394072172313990e-02
1.450531450514740417e-01 1.381718330885275918e+02 1.750528096682796964e+00 3.856486333607186956e-02
1.469803100554335773e-01 1.400313115690689472e+02 1.823246831950732449e+00 3.964900893199496679e-02
1.489074750593931129e-01 1.418917569669087300e+02 1.898023089253038087e+00 4.073606924530991102e-02
1.508346400633526763e-01 1.437531834479585200e+02 1.974864702678478245e+00 4.182574831999810727e-02
1.527618050673122119e-01 1.456156049130606505e+02 2.053779009644336462e+00 4.291776239678966182e-02
1.546889700712717475e-01 1.474790350018837159e+02 2.134772871594191379e+00 4.401183979992001616e-02
1.566161350752312831e-01 1.493434870968821144e+02 2.217852694523240853e+00 4.510772082242925363e-02
1.585433000791908187e-01 1.512089743273110400e+02 2.303024449332260915e+00 4.620515761036016883e-02
1.604704650831503820e-01 1.530755095732938287e+02 2.390293692011701054e+00 4.730391404619488371e-02
1.623976300871099177e-01 1.549431054699344941e+02 2.479665583657836070e+00 4.840376563185389697e-02
1.643247950910694533e-01 1.568117744114717027e+02 2.571144910323320598e+00 4.950449937156794350e-02
1.662519600950290166e-01 1.586815285554702655e+02 2.664736102704836629e+00 5.060591365491712290e-02
1.681791250989885522e-01 1.605523798270445184e+02 2.760443255670914198e+00 5.170781814031837759e-02
1.701062901029480878e-01 1.624243399231124840e+02 2.858270147633359404e+00 5.281003363922909255e-02
1.720334551069076234e-01 1.642974203166744758e+02 2.958220259766016103e+00 5.391239200131975329e-02
1.739606201108671590e-01 1.661716322611152350e+02 3.060296795074944676e+00 5.501473600085730192e-02
1.758877851148267224e-01 1.680469867945259921e+02 3.164502697324371283e+00 5.611691922452687054e-02
1.778149501187862580e-01 1.699234947440423866e+02 3.270840669823047442e+00 5.721880596090762883e-02
1.797421151227457936e-01 1.718011667301995260e+02 3.379313194075951543e+00 5.832027109180708963e-02
1.816692801267053292e-01 1.736800131712973894e+02 3.489922548306473526e+00 5.942119998564514283e-02
1.835964451306648648e-01 1.755600442877778846e+02 3.602670825854507264e+00 6.052148839306953354e-02
1.855236101346244282e-01 1.774412701066108013e+02 3.717559953456080812e+00 6.162104234497182281e-02
1.874507751385839638e-01 1.793237004656856186e+02 3.834591709410362981e+00 6.271977805306330755e-02
1.893779401425434994e-01 1.812073450182111571e+02 3.953767741640120015e+00 6.381762181315951687e-02
1.913051051465030628e-01 1.830922132371164253e+02 4.075089585651830326e+00 6.491450991131214598e-02
1.932322701504625706e-01 1.849783144194576892e+02 4.198558682401890785e+00 6.601038853291682496e-02
1.951594351544221340e-01 1.868656576908248610e+02 4.324176396075520401e+00 6.710521367491704969e-02
1.970866001583816696e-01 1.887542520097508429e+02 4.451944031785039613e+00 6.819895106121352801e-02
1.990137651623412052e-01 1.906441061721205585e+02 4.581862853194489382e+00 6.929157606138150460e-02
2.009409301663007685e-01 1.925352288155784777e+02 4.713934100077551648e+00 7.038307361278814400e-02
2.028680951702602764e-01 1.944276284239369943e+02 4.848159005815930733e+00 7.147343814619493141e-02
2.047952601742198397e-01 1.963213133315821608e+02 4.984538814845496546e+00 7.256267351492197426e-02
2.067224251781793753e-01 1.982162917278775467e+02 5.123074800057475287e+00 7.365079292764235841e-02
2.086495901821389110e-01 2.001125716615665908e+02 5.263768280162254953e+00 7.473781888486843994e-02
2.105767551860984743e-01 2.020101610451712020e+02 5.406620637023282328e+00 7.582378311918437641e-02
2.125039201900580099e-01 2.039090676593902742e+02 5.551633332968716417e+00 7.690872653927109670e-02
2.144310851940175455e-01 2.058092991574922053e+02 5.698807928088565511e+00 7.799269917776543992e-02
2.916875936594457430e-01 2.832475284983941606e+02 1.353637824270382595e+01 1.238046979555687266e-01
3.689441021248739405e-01 3.632535006957164683e+02 2.530257571795471705e+01 1.696166967333719855e-01
4.462006105903021935e-01 4.461449048132489565e+02 4.129357740560033108e+01 2.154286955111752999e-01
5.234571190557304465e-01 5.329136410275780236e+02 7.791417508608532216e+01 6.107472274596321693e-01
6.007136275211586440e-01 6.271492553578004845e+02 1.382957814489545854e+02 6.674313779301150884e-01
6.779701359865868415e-01 7.297711819784846057e+02 2.064691663427541926e+02 6.621542753493941946e-01
7.552266444520150390e-01 8.404435323903659310e+02 2.794157257564373822e+02 6.568771727686733009e-01
8.324831529174432365e-01 9.588138997570201809e+02 3.568188566097737748e+02 6.516000701879522961e-01
9.097396613828714340e-01 1.084567480795861456e+03 4.383922409929057267e+02 6.463229676072314023e-01
9.869961698482996315e-01 1.217419787850430566e+03 5.238742579097838643e+02 6.410458650265105085e-01
1.064252678313727829e+00 1.357111275213673480e+03 6.130238498723849716e+02 6.357687624457896147e-01
1.141509186779156249e+00 1.503403269112207681e+03 7.056173795645356677e+02 6.304916598650686099e-01
1.218765695244584446e+00 1.656074814835813868e+03 8.014461833288495427e+02 6.252145572843477161e-01
1.296022203710012644e+00 1.814920187014318799e+03 9.003146291237549121e+02 6.199374547036268224e-01
1.373278712175440841e+00 1.979803676115960343e+03 1.007546563137108706e+03 6.790638379203257635e-01
1.450535220640869039e+00 2.151114104712424705e+03 1.130690499277995741e+03 7.561301592679395833e-01
1.527791729106297236e+00 2.329454394395193958e+03 1.272656097019420258e+03 8.331964806155532921e-01
1.605048237571725434e+00 2.515459473212982630e+03 1.435083983503109494e+03 9.102628019631671119e-01
1.682304746037153631e+00 2.709785260999924049e+03 1.618827348780806915e+03 9.779373488220940436e-01
1.759561254502581829e+00 2.913023476653380385e+03 1.811593779299114203e+03 9.213915978556563857e-01
1.836817762968010026e+00 3.124644302156606500e+03 2.000373853525455161e+03 8.648458468892186168e-01
1.914074271433438224e+00 3.344096596475488241e+03 2.183758943290563820e+03 8.083000959227809590e-01
1.991330779898866421e+00 3.570818593488212173e+03 2.360425240501535882e+03 7.517543449563431901e-01
2.068587288364294619e+00 3.804242557167488485e+03 2.529139593837954635e+03 6.952085939899055322e-01
