# density  energy_density  pressure   sound_speed_squared  [All in nuclear units]
2.720000000000000022e-14 2.529924618736292620e-11 1.061056609100270887e-19 3.766610435412189122e-08
1.269999999999999890e-13 1.181251617980081254e-10 4.870113551826584858e-18 6.497781477172163475e-08
6.929999999999999754e-13 6.445728594625782745e-10 1.018299070687946017e-16 3.033770597342807186e-07
6.295000000000000137e-12 5.855111460395753757e-09 5.487150723824490656e-15 1.763710043904196507e-06
1.581000000000000150e-11 1.470523320212576141e-08 2.904239460150760759e-14 3.559434472327477622e-06
3.971999999999999958e-11 3.694456170323160790e-08 1.439340266754906811e-13 6.772854871245677111e-06
9.975999999999999982e-11 9.278976412613005154e-08 6.812143616221268841e-13 1.246890511177539320e-05
2.505999999999999928e-10 2.330928829758143313e-07 3.107749196951638608e-12 2.212095130576091967e-05
6.294000000000000186e-10 5.854398883216247602e-07 1.363250409771533549e-11 3.761981047239428883e-05
1.581000000000000021e-09 1.470619631082054101e-06 5.726014178088476303e-11 6.095350986710739404e-05
3.971999999999999932e-09 3.694861084648016046e-06 2.210019573374265380e-10 8.628023653304385055e-05
5.000000000000000105e-09 4.651201787816927976e-06 3.071485916280120014e-10 9.387863480799757518e-05
9.975999999999999465e-09 9.280587964640925786e-06 8.385361004129998845e-10 1.356922228656245837e-04
1.989999999999999952e-08 1.851419242998081003e-05 2.287763168863418088e-09 1.782101978513718314e-04
3.972999999999999908e-08 3.696699295748789187e-05 6.061583099087538954e-09 2.308134738384234820e-04
7.925999999999999637e-08 7.375765469301719828e-05 1.575347858094044765e-08 2.960532096713864875e-04
1.580999999999999930e-07 1.471491184379128891e-04 3.910429618672550719e-08 3.402859755131850544e-04
1.991000000000000027e-07 1.853209783927820692e-04 5.252045687899177454e-08 3.626488188833278743e-04
3.155999999999999938e-07 2.938002528823880299e-04 9.730770378831954314e-08 4.630767356912104081e-04
5.000999999999999849e-07 4.656344063839075714e-04 1.837494945860225819e-07 5.430301232045120323e-04
6.295999999999999732e-07 5.862651417037388971e-04 2.503103884558263872e-07 5.605192962670089638e-04
9.666999999999999941e-07 9.003386739730535665e-04 4.324450868778576936e-07 5.993081670211623108e-04
1.531999999999999901e-06 1.427170885631398036e-03 7.780217275717420968e-07 7.125938556504039095e-04
2.506999999999999883e-06 2.336134972129507662e-03 1.471005394641589826e-06 8.121876172121876309e-04
3.974000000000000407e-06 3.704315759716615697e-03 2.695705763844323844e-06 9.780674166779417152e-04
4.830000000000000343e-06 4.502887798316278223e-03 3.503988717694660908e-06 1.046253037768318664e-03
6.080999999999999885e-06 5.670217999231269741e-03 4.731126407333307547e-06 1.056224360839501646e-03
7.930000000000000308e-06 7.396012414119570652e-03 6.599662989063778187e-06 1.109203753630785610e-03
9.982000000000000313e-06 9.311815711689977113e-03 8.879881089227186733e-06 1.271216815433141075e-03
1.256999999999999993e-05 1.172874412604260098e-02 1.207676739913533738e-05 1.374195438212825332e-03
1.521999999999999997e-05 1.420427250933824909e-02 1.547541302213394990e-05 1.371610497379100249e-03
1.991000000000000080e-05 1.858690797761085312e-02 2.160710455847765458e-05 1.426578142835871997e-03
2.506999999999999883e-05 2.341050104039446925e-02 2.908031724375689851e-05 1.672007475975408053e-03
2.790999999999999875e-05 2.606604784714952258e-02 3.357009132255487721e-05 1.709425557744154774e-03
3.806999999999999973e-05 3.556967988784798945e-02 4.986781576435106434e-05 1.720407281314112165e-03
5.063000000000000145e-05 4.732434580343149871e-02 7.073400252905581275e-05 1.829889149838781265e-03
6.592000000000000583e-05 6.164112392498975052e-02 9.765037643900635188e-05 1.930242980462695823e-03
8.433000000000000066e-05 7.888776783401378612e-02 1.317235490470395893e-04 2.021055815200022837e-03
1.062000000000000064e-04 9.938561165478684845e-02 1.740088341640037047e-04 2.104789529260958983e-03
1.321000000000000126e-04 1.236720406455826121e-01 2.260189757651373944e-04 2.178291718403657477e-03
1.623999999999999901e-04 1.520974545104751274e-01 2.888169908545388338e-04 2.240170365918073281e-03
1.689999999999999879e-04 1.582907717069566844e-01 3.027354772999506964e-04 2.254509350360745651e-03
1.758999999999999930e-04 1.647661861691531171e-01 3.173785841705756782e-04 2.268169273277113179e-03
1.830000000000000029e-04 1.714298948183871907e-01 3.325196584577469103e-04 2.276170334580628063e-03
1.901999999999999882e-04 1.781880600978280049e-01 3.479577791899843742e-04 2.292561569242367037e-03
1.977000000000000079e-04 1.852284385240466902e-01 3.641242634600037713e-04 2.299943765467868384e-03
2.054000000000000053e-04 1.924572004474696396e-01 3.808304060475003897e-04 2.322187632288155723e-03
2.079000000000000119e-04 1.948043378760714872e-01 3.864137987380476553e-04 2.435429768083530178e-03
2.081999999999999921e-04 1.950859988578999005e-01 3.870314100985603909e-04 1.950065624557156818e-03
2.090999999999999868e-04 1.959309855029948977e-01 3.881261957135444685e-04 6.411875526909013856e-04
2.159999999999999919e-04 2.024093317906446865e-01 3.940874488768042125e-04 1.199166870571831411e-03
2.231000000000000019e-04 2.090756740932291913e-01 4.013938420547467825e-04 9.928616047829054436e-04
2.311000000000000066e-04 2.165873044433437034e-01 4.085241694843774404e-04 9.056166966301716637e-04
2.401000000000000085e-04 2.250381721984245909e-01 4.159700687886608468e-04 8.565463878902855599e-04
2.500000000000000052e-04 2.343344406330727658e-01 4.237602369176299592e-04 8.194318812157330018e-04
2.642999999999999733e-04 2.477629128650125634e-01 4.345596643180389446e-04 7.890063723638815647e-04
3.052999999999999941e-04 2.862671839140227270e-01 4.644058706720978241e-04 7.612775562167708662e-04
3.533000000000000224e-04 3.313503829113090826e-01 4.987577676308450197e-04 7.626578558207241024e-04
4.075999999999999871e-04 3.823564017794535141e-01 5.381334366106255759e-04 7.813048116943254948e-04
4.679999999999999915e-04 4.390986251953180042e-01 5.832692638200615834e-04 8.096035963157804938e-04
5.341000000000000261e-04 5.012024644415256081e-01 6.346556894078133086e-04 8.452514814113673558e-04
6.059000000000000366e-04 5.686690698184251325e-01 6.930641302632923034e-04 8.862253587289389486e-04
7.661000000000000275e-04 7.192254882508629654e-01 8.328184776562496576e-04 9.702780530519144065e-04
1.262000000000000101e-03 1.185459127778160093e+00 1.338484980802662205e-03 1.198863597978450275e-03
1.894999999999999983e-03 1.780909071169781921e+00 2.123481960401060308e-03 1.437771491635827115e-03
2.673000000000000029e-03 2.513147344746868850e+00 3.261860252001994032e-03 1.671524566936786766e-03
3.605999999999999830e-03 3.391736073717691369e+00 4.828136641022434151e-03 1.893900408978071038e-03
4.709999999999999777e-03 4.431905410739045870e+00 6.903512974832482635e-03 2.096551352830673849e-03
7.496000000000000059e-03 7.058993649504918366e+00 1.289742191321638018e-02 2.466596387205546859e-03
1.119999999999999989e-02 1.055540362104863661e+01 2.212077014004794340e-02 2.809304433764861584e-03
1.600000000000000033e-02 1.509117352747679952e+01 3.559566804390756900e-02 3.132325055719984222e-03
2.206999999999999934e-02 2.083310616724802244e+01 5.457322122755020599e-02 3.477840948757840792e-03
2.947999999999999926e-02 2.785007348564149154e+01 8.049103664263126956e-02 3.909302116317729670e-03
4.268000000000000266e-02 4.036707211535221518e+01 1.353887601042819133e-01 4.862066536253286525e-03
6.219999999999999835e-02 5.891246509830522626e+01 2.419691225623893105e-01 6.630786177272363080e-03
7.316999999999999893e-02 6.935151695866235855e+01 3.161896974764099033e-01 7.588671314871411888e-03
7.595999999999999974e-02 7.200836722020332559e+01 3.371250777904805096e-01 8.170805199905812125e-03
7.685877551020407761e-02 7.286441685367512378e+01 3.442152947419671039e-01 8.394152381823458478e-03
7.775755102040816935e-02 7.372055055682649538e+01 3.515040374831095438e-01 8.632950537407710692e-03
7.865632653061224722e-02 7.457676972759152534e+01 3.590043203057398102e-01 8.886577846167793490e-03
7.955510204081632508e-02 7.543307587767722566e+01 3.667286309739189454e-01 9.154412487612952412e-03
8.045387755102040295e-02 7.628947062275780411e+01 3.746889306650056928e-01 9.435832641252419120e-03
8.135265306122449469e-02 7.714595567310664137e+01 3.828966539072362618e-01 9.730216486595435685e-03
8.225142857142857256e-02 7.800253282464205995e+01 3.913627085110859549e-01 1.003694220315122856e-02
8.315020408163265042e-02 7.885920395036291097e+01 4.000974754919734977e-01 1.035538797042904156e-02
8.404897959183672829e-02 7.971597099215392745e+01 4.091108089821310911e-01 1.068493196793810808e-02
8.494775510204082003e-02 8.057283595294101985e+01 4.184120361297169466e-01 1.102495237518767018e-02
8.584653061224489790e-02 8.142980088917661874e+01 4.280099569834734941e-01 1.137482737168695607e-02
8.674530612244897576e-02 8.228686790363929049e+01 4.379128443614545563e-01 1.173393513694520260e-02
8.764408163265305363e-02 8.314403913852964934e+01 4.481284437025410128e-01 1.210165385047165358e-02
8.854285714285714537e-02 8.400131676884835485e+01 4.586639728996570464e-01 1.247736169177554415e-02
8.944163265306122323e-02 8.485870299604091826e+01 4.695261221137703167e-01 1.286043684036610249e-02
9.034040816326530110e-02 8.571620004189637143e+01 4.807210535679287133e-01 1.325025747575256721e-02
9.123918367346939284e-02 8.657381014268584352e+01 4.922544013207332259e-01 1.364620177744418038e-02
9.213795918367347071e-02 8.743153554353072821e+01 5.041312710187961788e-01 1.404764792495017019e-02
9.303673469387754857e-02 8.828937849298732488e+01 5.163562396278680300e-01 1.445397409777978218e-02
9.393551020408162644e-02 8.914734123783846087e+01 5.289333551424392210e-01 1.486455847544224627e-02
9.483428571428570431e-02 9.000542601808159304e+01 5.418661362737462461e-01 1.527877923744679761e-02
9.573306122448979605e-02 9.086363506210349783e+01 5.551575721162221866e-01 1.569601456330268346e-02
9.663183673469387391e-02 9.172197058203315123e+01 5.688101217925344288e-01 1.611564263251912682e-02
9.753061224489795178e-02 9.258043476926435744e+01 5.828257140774574241e-01 1.653704162460536281e-02
9.842938775510204352e-02 9.343902979013945753e+01 5.972057470009134450e-01 1.695958971907065085e-02
9.932816326530612139e-02 9.429775778178706958e+01 6.119510874306091086e-01 1.738266509542419833e-02
1.002269387755101993e-01 9.515662084810696797e+01 6.270620706347772577e-01 1.780564593317525424e-02
1.011257142857142910e-01 9.601562105589447071e+01 6.425384998256080671e-01 1.822791041183306066e-02
1.020244897959183689e-01 9.687476043109850821e+01 6.583796456840328437e-01 1.864883671090684231e-02
1.029232653061224467e-01 9.773404095520788815e+01 6.745842458665926022e-01 1.906780300990583779e-02
1.038220408163265246e-01 9.859346456175896378e+01 6.911505044951874455e-01 1.948418748833929265e-02
1.047208163265306025e-01 9.945303313295934799e+01 7.080760916305689490e-01 1.989736832571643160e-02
1.056195918367346942e-01 1.003127484964237510e+02 7.253581427304975904e-01 2.030672370154650713e-02
1.065183673469387721e-01 1.011726124220158027e+02 7.429932580935395547e-01 2.071163179533873702e-02
1.074171428571428499e-01 1.020326266187916104e+02 7.609775022895407526e-01 2.111147078660236681e-02
1.083159183673469417e-01 1.028927927320414426e+02 7.793064035778546339e-01 2.150561885484662816e-02
1.092146938775510195e-01 1.037531123404236411e+02 7.979749533144586682e-01 2.189345417958076315e-02
1.101134693877550974e-01 1.046135869531890989e+02 8.169776053491411005e-01 2.227435494031400343e-02
1.110122448979591891e-01 1.054742180074903644e+02 8.363082754139745667e-01 2.264769931655559107e-02
1.119110204081632531e-01 1.063350068657741190e+02 8.559603405043456625e-01 2.301286548781475427e-02
1.128097959183673449e-01 1.071959548132511486e+02 8.759266382538496432e-01 2.336923163360073163e-02
1.137085714285714227e-01 1.080570630554423985e+02 8.961994663043832965e-01 2.371617593342276870e-02
1.146073469387755006e-01 1.089183327157984422e+02 9.167705816728317636e-01 2.405307656679008671e-02
1.155061224489795924e-01 1.097797648333871905e+02 9.376312001157544040e-01 2.437931171321193469e-02
1.164048979591836702e-01 1.106413603606499692e+02 9.587719954935236544e-01 2.469425955219754429e-02
1.173036734693877481e-01 1.115031201612209486e+02 9.801830991354036904e-01 2.499729826325615412e-02
1.182024489795918398e-01 1.123650450078091865e+02 1.001854099207075466e+00 2.528780602589699930e-02
1.191012244897959177e-01 1.132271355801400006e+02 1.023774040082155334e+00 2.556516101962930804e-02
1.199999999999999956e-01 1.140893924629540095e+02 1.045931421719281662e+00 2.582874142396232586e-02
1.227587988102710331e-01 1.167371435909389703e+02 1.115310860236348178e+00 2.657740287740584240e-02
1.255175976205420707e-01 1.193864766459324471e+02 1.186718232656640337e+00 2.732834935000969315e-02
1.282763964308131222e-01 1.220374015116639157e+02 1.260160762951824109e+00 2.808046496968915479e-02
1.310351952410841458e-01 1.246899277701519395e+02 1.335642683294629096e+00 2.883259327385151102e-02
1.337939940513551973e-01 1.273440646565382650e+02 1.413165117128145853e+00 2.958353739752790645e-02
1.365527928616262487e-01 1.299998210152355398e+02 1.492725962102017689e+00 3.033206021051056481e-02
1.393115916718972724e-01 1.326572052572505527e+02 1.574319772749904311e+00 3.107688440570407357e-02
1.420703904821683239e-01 1.353162253185618056e+02 1.657937642789265809e+00 3.181669254035784239e-02
1.448291892924393753e-01 1.379768886194391087e+02 1.743567086930408294e+00 3.255012703172244920e-02
1.475879881027103990e-01 1.406392020246069308e+02 1.831191922086493173e+00 3.327579010786482078e-02
1.503467869129814505e-01 1.433031718041581826e+02 1.920792147880146628e+00 3.399224371453119647e-02
1.531055857232524742e-01 1.459688035951369329e+02 2.012343826345798448e+00 3.469800937838876664e-02
1.558643845335235256e-01 1.486361023637153664e+02 2.105818960729556100e+00 3.539156802682267428e-02
1.586231833437945493e-01 1.513050723678928193e+02 2.201185373290559077e+00 3.607135976422585349e-02
1.613819821540656008e-01 1.539757171206557018e+02 2.298406582009524968e+00 3.673578360451393993e-02
1.641407809643366522e-01 1.566480393535389055e+02 2.397441676111391029e+00 3.738319715940695287e-02
1.668995797746076759e-01 1.593220409805326767e+02 2.498245190309880570e+00 3.801191628184628218e-02
1.696583785848787274e-01 1.619977230622868092e+02 2.600766977682315240e+00 3.862021466374932627e-02
1.724171773951497788e-01 1.646750857705629585e+02 2.704952081083180637e+00 3.920632338715161758e-02
1.751759762054208025e-01 1.673541283528926442e+02 2.810740603004889593e+00 3.976843042763908431e-02
1.779347750156918539e-01 1.700348490973980802e+02 2.918067573793798442e+00 4.030468010883324348e-02
1.806935738259629054e-01 1.727172452977377475e+02 3.026862818128916999e+00 4.081317250655702722e-02
1.834523726362339291e-01 1.754013132181403307e+02 3.137050819669947810e+00 4.129196280117811840e-02
1.862111714465049528e-01 1.780870480584912912e+02 3.248550583780214218e+00 4.173906057649824641e-02
1.889699702567760042e-01 1.807744439194384540e+02 3.361275498228802228e+00 4.215242906343155682e-02
1.917287690670470557e-01 1.834634937674870230e+02 3.475133191774826269e+00 4.252998432658906813e-02
1.944875678773180794e-01 1.861541894000512798e+02 3.590025390535140470e+00 4.286959439176381975e-02
1.972463666875891308e-01 1.888465214104358836e+02 3.705847772035063770e+00 4.316907831218589481e-02
2.000051654978601823e-01 1.915404791527150508e+02 3.822489816839783394e+00 4.342620517129213570e-02
2.027639643081312060e-01 1.942360507064884416e+02 3.939834657662113049e+00 4.363869301962976233e-02
2.055227631184022574e-01 1.969332228414801023e+02 4.057758925840100339e+00 4.380420774338655843e-02
2.082815619286733089e-01 1.996319809819609929e+02 4.176132595075715770e+00 4.392036186190886871e-02
2.110403607389443326e-01 2.023323091709655159e+02 4.294818822323527741e+00 4.398471325144016897e-02
2.137991595492153563e-01 2.050341900342788222e+02 4.413673785715775288e+00 4.399476379217791971e-02
2.165579583594864355e-01 2.077376047441726712e+02 4.532546519407731900e+00 4.394795793560934971e-02
2.193167571697574592e-01 2.104425329828613656e+02 4.651278745224662003e+00 4.384168118894830185e-02
2.220755559800284828e-01 2.131489529056589163e+02 4.769704700989041868e+00 4.367325851335199932e-02
2.248343547902995343e-01 2.158568411038114050e+02 4.887650965403972592e+00 4.343995263245097049e-02
2.275931536005705857e-01 2.185661725669808106e+02 5.004936279366064333e+00 4.313896224757577530e-02
2.303519524108416094e-01 2.212769206453601498e+02 5.121371363578353986e+00 4.276742015591230434e-02
2.331107512211126609e-01 2.239890570113936406e+02 5.236758732331111332e+00 4.232239126766046411e-02
2.358695500313837123e-01 2.267025516210803744e+02 5.350892503315742843e+00 4.180087051811391674e-02
2.386283488416547360e-01 2.294173726748404647e+02 5.463558203334455854e+00 4.119978067041175224e-02
2.413871476519257875e-01 2.321334865779160168e+02 5.574532569765822565e+00 4.051597000455427200e-02
2.441459464621968389e-01 2.348508579002890713e+02 5.683583347644032280e+00 3.974620988810245725e-02
2.469047452724678626e-01 2.375694493360903152e+02 5.790469082207448714e+00 3.888719222381316343e-02
2.496635440827389141e-01 2.402892216624761375e+02 5.894938906770059717e+00 3.793552676928985817e-02
2.524223428930099100e-01 2.430101336979503799e+02 5.996732325767663241e+00 3.688773832355771859e-02
2.551811417032809892e-01 2.457321422601106633e+02 6.095578992829199905e+00 3.574026377529762599e-02
3.316060163623977264e-01 3.228480393360807170e+02 2.093778970008188978e+01 3.406311916722902788e-01
4.080308910215144080e-01 4.054392745399092064e+02 5.485762854281325929e+01 4.738281865256703806e-01
4.844557656806310897e-01 4.954091355995188337e+02 9.790648741372234554e+01 4.834176982133266964e-01
5.608806403397478269e-01 5.925243199230562823e+02 1.453126045017498882e+02 4.930072099009830122e-01
6.373055149988645640e-01 6.963984155787791224e+02 1.970187339277583192e+02 5.025967215886393280e-01
7.137303896579811902e-01 8.067335869438651343e+02 2.530022323181718491e+02 5.121862332762956438e-01
7.901552643170979273e-01 9.232950494331091704e+02 3.132649046576185015e+02 5.217757449639520706e-01
8.665801389762146645e-01 1.045894712149885891e+03 3.778266337609131824e+02 5.313652566516083864e-01
9.430050136353314016e-01 1.174380167594780005e+03 4.467211740253760013e+02 5.409547683392647022e-01
1.019429888294448139e+00 1.308626985034923791e+03 5.199932606863108049e+02 5.505442800269210180e-01
1.095854762953564876e+00 1.448533141552301231e+03 5.976965581471627047e+02 5.601337917145773337e-01
1.172279637612681391e+00 1.594014889759105245e+03 6.798921649399486569e+02 5.697233034022336495e-01
1.248704512271798350e+00 1.745003622155319135e+03 7.666475002144652535e+02 5.793128150898900763e-01
1.325129386930914865e+00 1.901443445743508619e+03 8.580354590721382237e+02 5.889023267775463921e-01
1.401554261590031603e+00 2.063289274669047700e+03 9.541337618938666765e+02 5.984918384652027079e-01
1.477979136249148340e+00 2.230505308369999057e+03 1.055024446568884287e+03 6.080813501528590237e-01
1.554404010908265077e+00 2.403063801739086102e+03 1.160793467912450069e+03 6.176708618405153395e-01
1.630828885567381814e+00 2.580944059966782334e+03 1.271530378786072561e+03 6.272603735281716553e-01
1.707253760226498551e+00 2.764131608690140183e+03 1.387328074393721636e+03 6.368498852158279711e-01
1.783678634885615288e+00 2.952502040305483206e+03 1.495738365912754261e+03 5.166454018182210506e-01
1.860103509544731804e+00 3.145030801817899373e+03 1.581330023099124446e+03 3.744520448931495382e-01
1.936528384203848541e+00 3.340505085372825306e+03 1.640515420233839905e+03 2.322586879680776373e-01
2.012953258862965278e+00 3.537979511103588720e+03 1.686782825987688284e+03 2.363228892635684530e-01
2.089378133522082237e+00 3.737265414258454257e+03 1.736527656771132797e+03 2.627677867735453976e-01
