# density  energy_density  pressure   sound_speed_squared  [All in nuclear units]
2.720000000000000022e-14 2.529924618736292620e-11 1.061056609100270887e-19 3.766610435412189122e-08
1.269999999999999890e-13 1.181251617980081254e-10 4.870113551826584858e-18 6.497781477172163475e-08
6.929999999999999754e-13 6.445728594625782745e-10 1.018299070687946017e-16 3.033770597342807186e-07
6.295000000000000137e-12 5.855111460395753757e-09 5.487150723824490656e-15 1.763710043904196507e-06
1.581000000000000150e-11 1.470523320212576141e-08 2.904239460150760759e-14 3.559434472327477622e-06
3.971999999999999958e-11 3.694456170323160790e-08 1.439340266754906811e-13 6.772854871245677111e-06
9.975999999999999982e-11 9.278976412613005154e-08 6.812143616221268841e-13 1.246890511177539320e-05
2.505999999999999928e-10 2.330928829758143313e-07 3.107749196951638608e-12 2.212095130576091967e-05
6.294000000000000186e-10 5.854398883216247602e-07 1.363250409771533549e-11 3.761981047239428883e-05
1.581000000000000021e-09 1.470619631082054101e-06 5.726014178088476303e-11 6.095350986710739404e-05
3.971999999999999932e-09 3.694861084648016046e-06 2.210019573374265380e-10 8.628023653304385055e-05
5.000000000000000105e-09 4.651201787816927976e-06 3.071485916280120014e-10 9.387863480799757518e-05
9.975999999999999465e-09 9.280587964640925786e-06 8.385361004129998845e-10 1.356922228656245837e-04
1.989999999999999952e-08 1.851419242998081003e-05 2.287763168863418088e-09 1.782101978513718314e-04
3.972999999999999908e-08 3.696699295748789187e-05 6.061583099087538954e-09 2.308134738384234820e-04
7.925999999999999637e-08 7.375765469301719828e-05 1.575347858094044765e-08 2.960532096713864875e-04
1.580999999999999930e-07 1.471491184379128891e-04 3.910429618672550719e-08 3.402859755131850544e-04
1.991000000000000027e-07 1.853209783927820692e-04 5.252045687899177454e-08 3.626488188833278743e-04
3.155999999999999938e-07 2.938002528823880299e-04 9.730770378831954314e-08 4.630767356912104081e-04
5.000999999999999849e-07 4.656344063839075714e-04 1.837494945860225819e-07 5.430301232045120323e-04
6.295999999999999732e-07 5.862651417037388971e-04 2.503103884558263872e-07 5.605192962670089638e-04
9.666999999999999941e-07 9.003386739730535665e-04 4.324450868778576936e-07 5.993081670211623108e-04
1.531999999999999901e-06 1.427170885631398036e-03 7.780217275717420968e-07 7.125938556504039095e-04
2.506999999999999883e-06 2.336134972129507662e-03 1.471005394641589826e-06 8.121876172121876309e-04
3.974000000000000407e-06 3.704315759716615697e-03 2.695705763844323844e-06 9.780674166779417152e-04
4.830000000000000343e-06 4.502887798316278223e-03 3.503988717694660908e-06 1.046253037768318664e-03
6.080999999999999885e-06 5.670217999231269741e-03 4.731126407333307547e-06 1.056224360839501646e-03
7.930000000000000308e-06 7.396012414119570652e-03 6.599662989063778187e-06 1.109203753630785610e-03
9.982000000000000313e-06 9.311815711689977113e-03 8.879881089227186733e-06 1.271216815433141075e-03
1.256999999999999993e-05 1.172874412604260098e-02 1.207676739913533738e-05 1.374195438212825332e-03
1.521999999999999997e-05 1.420427250933824909e-02 1.547541302213394990e-05 1.371610497379100249e-03
1.991000000000000080e-05 1.858690797761085312e-02 2.160710455847765458e-05 1.426578142835871997e-03
2.506999999999999883e-05 2.341050104039446925e-02 2.908031724375689851e-05 1.672007475975408053e-03
2.790999999999999875e-05 2.606604784714952258e-02 3.357009132255487721e-05 1.709425557744154774e-03
3.806999999999999973e-05 3.556967988784798945e-02 4.986781576435106434e-05 1.720407281314112165e-03
5.063000000000000145e-05 4.732434580343149871e-02 7.073400252905581275e-05 1.829889149838781265e-03
6.592000000000000583e-05 6.164112392498975052e-02 9.765037643900635188e-05 1.930242980462695823e-03
8.433000000000000066e-05 7.888776783401378612e-02 1.317235490470395893e-04 2.021055815200022837e-03
1.062000000000000064e-04 9.938561165478684845e-02 1.740088341640037047e-04 2.104789529260958983e-03
1.321000000000000126e-04 1.236720406455826121e-01 2.260189757651373944e-04 2.178291718403657477e-03
1.623999999999999901e-04 1.520974545104751274e-01 2.888169908545388338e-04 2.240170365918073281e-03
1.689999999999999879e-04 1.582907717069566844e-01 3.027354772999506964e-04 2.254509350360745651e-03
1.758999999999999930e-04 1.647661861691531171e-01 3.173785841705756782e-04 2.268169273277113179e-03
1.830000000000000029e-04 1.714298948183871907e-01 3.325196584577469103e-04 2.276170334580628063e-03
1.901999999999999882e-04 1.781880600978280049e-01 3.479577791899843742e-04 2.292561569242367037e-03
1.977000000000000079e-04 1.852284385240466902e-01 3.641242634600037713e-04 2.299943765467868384e-03
2.054000000000000053e-04 1.924572004474696396e-01 3.808304060475003897e-04 2.322187632288155723e-03
2.079000000000000119e-04 1.948043378760714872e-01 3.864137987380476553e-04 2.435429768083530178e-03
2.081999999999999921e-04 1.950859988578999005e-01 3.870314100985603909e-04 1.950065624557156818e-03
2.090999999999999868e-04 1.959309855029948977e-01 3.881261957135444685e-04 6.411875526909013856e-04
2.159999999999999919e-04 2.024093317906446865e-01 3.940874488768042125e-04 1.199166870571831411e-03
2.231000000000000019e-04 2.090756740932291913e-01 4.013938420547467825e-04 9.928616047829054436e-04
2.311000000000000066e-04 2.165873044433437034e-01 4.085241694843774404e-04 9.056166966301716637e-04
2.401000000000000085e-04 2.250381721984245909e-01 4.159700687886608468e-04 8.565463878902855599e-04
2.500000000000000052e-04 2.343344406330727658e-01 4.237602369176299592e-04 8.194318812157330018e-04
2.642999999999999733e-04 2.477629128650125634e-01 4.345596643180389446e-04 7.890063723638815647e-04
3.052999999999999941e-04 2.862671839140227270e-01 4.644058706720978241e-04 7.612775562167708662e-04
3.533000000000000224e-04 3.313503829113090826e-01 4.987577676308450197e-04 7.626578558207241024e-04
4.075999999999999871e-04 3.823564017794535141e-01 5.381334366106255759e-04 7.813048116943254948e-04
4.679999999999999915e-04 4.390986251953180042e-01 5.832692638200615834e-04 8.096035963157804938e-04
5.341000000000000261e-04 5.012024644415256081e-01 6.346556894078133086e-04 8.452514814113673558e-04
6.059000000000000366e-04 5.686690698184251325e-01 6.930641302632923034e-04 8.862253587289389486e-04
7.661000000000000275e-04 7.192254882508629654e-01 8.328184776562496576e-04 9.702780530519144065e-04
1.262000000000000101e-03 1.185459127778160093e+00 1.338484980802662205e-03 1.198863597978450275e-03
1.894999999999999983e-03 1.780909071169781921e+00 2.123481960401060308e-03 1.437771491635827115e-03
2.673000000000000029e-03 2.513147344746868850e+00 3.261860252001994032e-03 1.671524566936786766e-03
3.605999999999999830e-03 3.391736073717691369e+00 4.828136641022434151e-03 1.893900408978071038e-03
4.709999999999999777e-03 4.431905410739045870e+00 6.903512974832482635e-03 2.096551352830673849e-03
7.496000000000000059e-03 7.058993649504918366e+00 1.289742191321638018e-02 2.466596387205546859e-03
1.119999999999999989e-02 1.055540362104863661e+01 2.212077014004794340e-02 2.809304433764861584e-03
1.600000000000000033e-02 1.509117352747679952e+01 3.559566804390756900e-02 3.132325055719984222e-03
2.206999999999999934e-02 2.083310616724802244e+01 5.457322122755020599e-02 3.477840948757840792e-03
2.947999999999999926e-02 2.785007348564149154e+01 8.049103664263126956e-02 3.909302116317729670e-03
4.268000000000000266e-02 4.036707211535221518e+01 1.353887601042819133e-01 4.862066536253286525e-03
6.219999999999999835e-02 5.891246509830522626e+01 2.419691225623893105e-01 6.630786177272363080e-03
7.316999999999999893e-02 6.935151695866235855e+01 3.161896974764099033e-01 7.588671314871411888e-03
7.595999999999999974e-02 7.200836722020332559e+01 3.371250777904805096e-01 8.170805199905812125e-03
7.685877551020407761e-02 7.286441676569188530e+01 3.442002377825734150e-01 8.358978049466437438e-03
7.775755102040816935e-02 7.372054997302791435e+01 3.514340419317890096e-01 8.539796444477215989e-03
7.865632653061224722e-02 7.457676767415077279e+01 3.588204463708833392e-01 8.713762800894067975e-03
7.955510204081632508e-02 7.543307061535610103e+01 3.663538353426709637e-01 8.881379534672937878e-03
8.045387755102040295e-02 7.628945946503661446e+01 3.740290213505401695e-01 9.043149061769756303e-03
8.135265306122449469e-02 7.714593482107872546e+01 3.818412453209732993e-01 9.199573798140452119e-03
8.225142857142857256e-02 7.800249721793414892e+01 3.897861767764779772e-01 9.351156159740955931e-03
8.315020408163265042e-02 7.885914713338429749e+01 3.978599140175144155e-01 9.498398562527205283e-03
8.404897959183672829e-02 7.971588499501453384e+01 4.060589843121654163e-01 9.641803422455129044e-03
8.494775510204082003e-02 8.057271118641270391e+01 4.143803440924537784e-01 9.781873155480661289e-03
8.584653061224489790e-02 8.142962605310817992e+01 4.228213791563508739e-01 9.919110177559730887e-03
8.674530612244897576e-02 8.228662990826413193e+01 4.313799048746576603e-01 1.005401690464827365e-02
8.764408163265305363e-02 8.314372303813577503e+01 4.400541664020590771e-01 1.018709575270222191e-02
8.854285714285714537e-02 8.400090570730711192e+01 4.488428388917737877e-01 1.031884913767750975e-02
8.944163265306122323e-02 8.485817816371694278e+01 4.577450277133267575e-01 1.044977947553006256e-02
9.034040816326530110e-02 8.571554064348562463e+01 4.667602686730773498e-01 1.058038918221581789e-02
9.123918367346939284e-02 8.657299337555103591e+01 4.758885282372258274e-01 1.071118067369070809e-02
9.213795918367347071e-02 8.743053658612514312e+01 4.851302037571155745e-01 1.084265636591066201e-02
9.303673469387754857e-02 8.828817050297774927e+01 4.944861236967310059e-01 1.097531867483161373e-02
9.393551020408162644e-02 8.914589535955786914e+01 5.039575478623664617e-01 1.110967001640950254e-02
9.483428571428570431e-02 9.000371139895868566e+01 5.135461676345199900e-01 1.124621280660024689e-02
9.573306122448979605e-02 9.086161887773545232e+01 5.232541062021327516e-01 1.138544946135979299e-02
9.663183673469387391e-02 9.171961806958084651e+01 5.330839187993599015e-01 1.152788239664406279e-02
9.753061224489795178e-02 9.257770926886733776e+01 5.430385929451234661e-01 1.167401402840899383e-02
9.842938775510204352e-02 9.343589279405952652e+01 5.531215486857508079e-01 1.182434677261052017e-02
9.932816326530612139e-02 9.429416899100581873e+01 5.633366388410609993e-01 1.197938304520456722e-02
1.002269387755101993e-01 9.515253823611162431e+01 5.736881492543133287e-01 1.213962526214707252e-02
1.011257142857142910e-01 9.601100093940205227e+01 5.841807990464757960e-01 1.230557583939397188e-02
1.020244897959183689e-01 9.686955754747724257e+01 5.948197408753238546e-01 1.247773719290118377e-02
1.029232653061224467e-01 9.772820854636651688e+01 6.056105611999202942e-01 1.265661173862465613e-02
1.038220408163265246e-01 9.858695446428501441e+01 6.165592805510669017e-01 1.284270189252031263e-02
1.047208163265306025e-01 9.944579587429629441e+01 6.276723538083606169e-01 1.303651007054408735e-02
1.056195918367346942e-01 1.003047333968878263e+02 6.389566704845217604e-01 1.323853868865191262e-02
1.065183673469387721e-01 1.011637677024588839e+02 6.504195550176977703e-01 1.344929016279972425e-02
1.074171428571428499e-01 1.020228995137295271e+02 6.620687670724806351e-01 1.366926690894344938e-02
1.083159183673469417e-01 1.028821296080690786e+02 6.739125018504034115e-01 1.389897134303902382e-02
1.092146938775510195e-01 1.037414588197516423e+02 6.859593904107162965e-01 1.413890588104237817e-02
1.101134693877550974e-01 1.046008880421394309e+02 6.982185000022702592e-01 1.438957293890943956e-02
1.110122448979591891e-01 1.054604182297972841e+02 7.106993344073597729e-01 1.465147493259615595e-02
1.119110204081632531e-01 1.063200504005421578e+02 7.234118342984060535e-01 1.492511427805843886e-02
1.128097959183673449e-01 1.071797856374291626e+02 7.363663776083894108e-01 1.521099339125223798e-02
1.137085714285714227e-01 1.080396250906776316e+02 7.495737799159509773e-01 1.550961468813347524e-02
1.146073469387755006e-01 1.088995699795392085e+02 7.630452948461264873e-01 1.582148058465809165e-02
1.155061224489795924e-01 1.097596215941104560e+02 7.767926144876752259e-01 1.614709349678201608e-02
1.164048979591836702e-01 1.106197812970929419e+02 7.908278698280033492e-01 1.648695584046117046e-02
1.173036734693877481e-01 1.114800505255013832e+02 8.051636312066952073e-01 1.684157003165150102e-02
1.182024489795918398e-01 1.123404307923240282e+02 8.198129087886830701e-01 1.721143848630894008e-02
1.191012244897959177e-01 1.132009236881353047e+02 8.347891530581078579e-01 1.759706362038941305e-02
1.199999999999999956e-01 1.140615308826642433e+02 8.501062553339414629e-01 1.799894784984884880e-02
1.233502717482087840e-01 1.172705748116768376e+02 9.104410342659527977e-01 1.960363590283081825e-02
1.267005434964175725e-01 1.204813282320786811e+02 9.760239020952176103e-01 2.124796628764578574e-02
1.300508152446263610e-01 1.236938864598775751e+02 1.046986711608026921e+00 2.292997380014372838e-02
1.334010869928351495e-01 1.269083432248807526e+02 1.123455709026075500e+00 2.464773273340229234e-02
1.367513587410439657e-01 1.301247906509405539e+02 1.205551657959312184e+00 2.639935801721315228e-02
1.401016304892527542e-01 1.333433192411914661e+02 1.293389964862217800e+00 2.818300625343716365e-02
1.434519022374615427e-01 1.365640178677174390e+02 1.387080805834365549e+00 2.999687665878700282e-02
1.468021739856703312e-01 1.397869737651597291e+02 1.486729254638565090e+00 3.183921192508252368e-02
1.501524457338791196e-01 1.430122725278442601e+02 1.592435411837433534e+00 3.370829900568871051e-02
1.535027174820879081e-01 1.462399981100573143e+02 1.704294534972474295e+00 3.560246983572291218e-02
1.568529892302967244e-01 1.494702328291511435e+02 1.822397169729250921e+00 3.752010199256320538e-02
1.602032609785055128e-01 1.527030573711939212e+02 1.946829282048430976e+00 3.945961930231886572e-02
1.635535327267143013e-01 1.559385507989216819e+02 2.077672391155808818e+00 4.141949239710487896e-02
1.669038044749230898e-01 1.591767905617713268e+02 2.215003703495086906e+00 4.339823922724531102e-02
1.702540762231318783e-01 1.624178525078066855e+02 2.358896247555628989e+00 4.539442553187931356e-02
1.736043479713406668e-01 1.656618108973663936e+02 2.509419009593690575e+00 4.740666527085403426e-02
1.769546197195494552e-01 1.689087384182877827e+02 2.666637070250065467e+00 4.943362102025184585e-02
1.803048914677582437e-01 1.721587062025709258e+02 2.830611742069814252e+00 5.147400433340882514e-02
1.836551632159670322e-01 1.754117838443686708e+02 3.001400707930891976e+00 5.352657606883198804e-02
1.870054349641758207e-01 1.786680394191982373e+02 3.179058160388220422e+00 5.559014668600835429e-02
1.903557067123846092e-01 1.819275395042785703e+02 3.363634941938170808e+00 5.766357650971797033e-02
1.937059784605934254e-01 1.851903491999149765e+02 3.555178686205612504e+00 5.974577596310970407e-02
1.970562502088022139e-01 1.884565321518518033e+02 3.753733960051754526e+00 6.183570576947161612e-02
2.004065219570110024e-01 1.917261505745308909e+02 3.959342406596064734e+00 6.393237712232476000e-02
2.037567937052197908e-01 1.949992652751913056e+02 4.172042889139552457e+00 6.603485182318645508e-02
2.071070654534285793e-01 1.982759356787585148e+02 4.391871635969907928e+00 6.814224238608682094e-02
2.104573372016373956e-01 2.015562198534731237e+02 4.618862386021249655e+00 7.025371210767711316e-02
2.138076089498461840e-01 2.048401745372107143e+02 4.853046535352733670e+00 7.236847510154013896e-02
2.171578806980549725e-01 2.081278551644560935e+02 5.094453284401059712e+00 7.448579629509848032e-02
2.205081524462637610e-01 2.114193158938879549e+02 5.343109785951877022e+00 7.660499138731659274e-02
2.238584241944725495e-01 2.147146096365410131e+02 5.599041293764530636e+00 7.872542676520477567e-02
2.272086959426813380e-01 2.180137880845120435e+02 5.862271311773270988e+00 8.084651937695655488e-02
2.305589676908901264e-01 2.213169017401741883e+02 6.132821743776190715e+00 8.296773655938367853e-02
2.339092394390989149e-01 2.246239999458734076e+02 6.410713043510686937e+00 8.508859581715802478e-02
2.372595111873077034e-01 2.279351309140735395e+02 6.695964365001246144e+00 8.720866455121722982e-02
2.406097829355164919e-01 2.312503417579237919e+02 6.988593713051785450e+00 8.932755973355271939e-02
2.439600546837252804e-01 2.345696785222189078e+02 7.288618093740729442e+00 9.144494752545996585e-02
2.473103264319340966e-01 2.378931862147244374e+02 7.596053664762433932e+00 9.356054283620177103e-02
2.506605981801428573e-01 2.412209088378391755e+02 7.910915885443468909e+00 9.567410881890979490e-02
2.540108699283516458e-01 2.445528894205672827e+02 8.233219666246803570e+00 9.778545630042392856e-02
2.573611416765604343e-01 2.478891700507697067e+02 8.562979517560751930e+00 9.989444314165180083e-02
2.607114134247692228e-01 2.512297919076677317e+02 8.900209697553183474e+00 1.020009735249079591e-01
2.640616851729780112e-01 2.545747952945700661e+02 9.244924358854364144e+00 1.041049971645752331e-01
2.674119569211868552e-01 2.579242196717885349e+02 9.597137693814332238e+00 1.062065084373089302e-01
2.707622286693956437e-01 2.612781036897153513e+02 9.956864078062668710e+00 1.083055454278839674e-01
2.741125004176044322e-01 2.646364852220279431e+02 1.032411821208006408e+01 1.104021888866596468e-01
2.774627721658132207e-01 2.679994013989858672e+02 1.069891526047179475e+01 1.124965610945075078e-01
2.808130439140220092e-01 2.713668886407855894e+02 1.108127098861378634e+01 1.145888246309142988e-01
2.841633156622307976e-01 2.747389826909378598e+02 1.147120189632150478e+01 1.166791810408325247e-01
3.599967173834097700e-01 3.528140239456303107e+02 2.646722626125158229e+01 2.638456953826084916e-01
4.358301191045886869e-01 4.352505967644486873e+02 5.452031238048395778e+01 4.110122097243842920e-01
5.116635208257676037e-01 5.237309863252810374e+02 9.773965546070104438e+01 5.581787240661600924e-01
5.874969225469466316e-01 6.197009087667565836e+02 1.550978924474868563e+02 6.329742920108474280e-01
6.633303242681256595e-01 7.236664419795125696e+02 2.173804961185782076e+02 5.694358667999108725e-01
7.391637259893044654e-01 8.346163452520539749e+02 2.768548623632344743e+02 5.058974415889745391e-01
8.149971277104834932e-01 9.514682161168981338e+02 3.321149204275444617e+02 4.423590163780379281e-01
8.908305294316625211e-01 1.073222121084813580e+03 3.819950212586787188e+02 3.788205911671013726e-01
9.666639311528413270e-01 1.198959056372733357e+03 4.255485657486350419e+02 3.152821659561650391e-01
1.042497332874020355e+00 1.327838208695804042e+03 4.620267157890779117e+02 2.517437407452284837e-01
1.118330734595199383e+00 1.459093485066474386e+03 4.908577763406475469e+02 1.882053155342919282e-01
1.194164136316378189e+00 1.592029619359686421e+03 5.116275911054623293e+02 1.246668903233555392e-01
1.269997538037557216e+00 1.726225015851638545e+03 5.316150355422179246e+02 1.729781999196963738e-01
1.345830939758736244e+00 1.862015473576901968e+03 5.684797985307906174e+02 3.680793763687018605e-01
1.421664341479915050e+00 2.000437560565736931e+03 6.232812656911700060e+02 4.229587066454901234e-01
1.497497743201094078e+00 2.141817813066747476e+03 6.747762423939019527e+02 3.070534344305115293e-01
1.573331144922273106e+00 2.285559355686597883e+03 7.195437906099473366e+02 3.157836122221708286e-01
1.649164546643451912e+00 2.431550781884017397e+03 7.691773344830920678e+02 3.636922821814462248e-01
1.724997948364630940e+00 2.580000569572770928e+03 8.267632029027355429e+02 4.116009521407217320e-01
1.800831350085809968e+00 2.731157568248549978e+03 8.926455567913477580e+02 4.595096220999972392e-01
1.876664751806988773e+00 2.885264813633894391e+03 9.672015532330824499e+02 5.074182920592725798e-01
1.952498153528167801e+00 3.042561567041053422e+03 1.050841312943581443e+03 5.553269620185481426e-01
2.028331555249347051e+00 3.203285041862705384e+03 1.144008195921239803e+03 6.032356319778238163e-01
2.104164956970525857e+00 3.367671886480132343e+03 1.247179338596925618e+03 6.511443019370991570e-01
