# density  energy_density  pressure   sound_speed_squared  [All in nuclear units]
2.720000000000000022e-14 2.529924618736292620e-11 1.061056609100270887e-19 3.766610435412189122e-08
1.269999999999999890e-13 1.181251617980081254e-10 4.870113551826584858e-18 6.497781477172163475e-08
6.929999999999999754e-13 6.445728594625782745e-10 1.018299070687946017e-16 3.033770597342807186e-07
6.295000000000000137e-12 5.855111460395753757e-09 5.487150723824490656e-15 1.763710043904196507e-06
1.581000000000000150e-11 1.470523320212576141e-08 2.904239460150760759e-14 3.559434472327477622e-06
3.971999999999999958e-11 3.694456170323160790e-08 1.439340266754906811e-13 6.772854871245677111e-06
9.975999999999999982e-11 9.278976412613005154e-08 6.812143616221268841e-13 1.246890511177539320e-05
2.505999999999999928e-10 2.330928829758143313e-07 3.107749196951638608e-12 2.212095130576091967e-05
6.294000000000000186e-10 5.854398883216247602e-07 1.363250409771533549e-11 3.761981047239428883e-05
1.581000000000000021e-09 1.470619631082054101e-06 5.726014178088476303e-11 6.095350986710739404e-05
3.971999999999999932e-09 3.694861084648016046e-06 2.210019573374265380e-10 8.628023653304385055e-05
5.000000000000000105e-09 4.651201787816927976e-06 3.071485916280120014e-10 9.387863480799757518e-05
9.975999999999999465e-09 9.280587964640925786e-06 8.385361004129998845e-10 1.356922228656245837e-04
1.989999999999999952e-08 1.851419242998081003e-05 2.287763168863418088e-09 1.782101978513718314e-04
3.972999999999999908e-08 3.696699295748789187e-05 6.061583099087538954e-09 2.308134738384234820e-04
7.925999999999999637e-08 7.375765469301719828e-05 1.575347858094044765e-08 2.960532096713864875e-04
1.580999999999999930e-07 1.471491184379128891e-04 3.910429618672550719e-08 3.402859755131850544e-04
1.991000000000000027e-07 1.853209783927820692e-04 5.252045687899177454e-08 3.626488188833278743e-04
3.155999999999999938e-07 2.938002528823880299e-04 9.730770378831954314e-08 4.630767356912104081e-04
5.000999999999999849e-07 4.656344063839075714e-04 1.837494945860225819e-07 5.430301232045120323e-04
6.295999999999999732e-07 5.862651417037388971e-04 2.503103884558263872e-07 5.605192962670089638e-04
9.666999999999999941e-07 9.003386739730535665e-04 4.324450868778576936e-07 5.993081670211623108e-04
1.531999999999999901e-06 1.427170885631398036e-03 7.780217275717420968e-07 7.125938556504039095e-04
2.506999999999999883e-06 2.336134972129507662e-03 1.471005394641589826e-06 8.121876172121876309e-04
3.974000000000000407e-06 3.704315759716615697e-03 2.695705763844323844e-06 9.780674166779417152e-04
4.830000000000000343e-06 4.502887798316278223e-03 3.503988717694660908e-06 1.046253037768318664e-03
6.080999999999999885e-06 5.670217999231269741e-03 4.731126407333307547e-06 1.056224360839501646e-03
7.930000000000000308e-06 7.396012414119570652e-03 6.599662989063778187e-06 1.109203753630785610e-03
9.982000000000000313e-06 9.311815711689977113e-03 8.879881089227186733e-06 1.271216815433141075e-03
1.256999999999999993e-05 1.172874412604260098e-02 1.207676739913533738e-05 1.374195438212825332e-03
1.521999999999999997e-05 1.420427250933824909e-02 1.547541302213394990e-05 1.371610497379100249e-03
1.991000000000000080e-05 1.858690797761085312e-02 2.160710455847765458e-05 1.426578142835871997e-03
2.506999999999999883e-05 2.341050104039446925e-02 2.908031724375689851e-05 1.672007475975408053e-03
2.790999999999999875e-05 2.606604784714952258e-02 3.357009132255487721e-05 1.709425557744154774e-03
3.806999999999999973e-05 3.556967988784798945e-02 4.986781576435106434e-05 1.720407281314112165e-03
5.063000000000000145e-05 4.732434580343149871e-02 7.073400252905581275e-05 1.829889149838781265e-03
6.592000000000000583e-05 6.164112392498975052e-02 9.765037643900635188e-05 1.930242980462695823e-03
8.433000000000000066e-05 7.888776783401378612e-02 1.317235490470395893e-04 2.021055815200022837e-03
1.062000000000000064e-04 9.938561165478684845e-02 1.740088341640037047e-04 2.104789529260958983e-03
1.321000000000000126e-04 1.236720406455826121e-01 2.260189757651373944e-04 2.178291718403657477e-03
1.623999999999999901e-04 1.520974545104751274e-01 2.888169908545388338e-04 2.240170365918073281e-03
1.689999999999999879e-04 1.582907717069566844e-01 3.027354772999506964e-04 2.254509350360745651e-03
1.758999999999999930e-04 1.647661861691531171e-01 3.173785841705756782e-04 2.268169273277113179e-03
1.830000000000000029e-04 1.714298948183871907e-01 3.325196584577469103e-04 2.276170334580628063e-03
1.901999999999999882e-04 1.781880600978280049e-01 3.479577791899843742e-04 2.292561569242367037e-03
1.977000000000000079e-04 1.852284385240466902e-01 3.641242634600037713e-04 2.299943765467868384e-03
2.054000000000000053e-04 1.924572004474696396e-01 3.808304060475003897e-04 2.322187632288155723e-03
2.079000000000000119e-04 1.948043378760714872e-01 3.864137987380476553e-04 2.435429768083530178e-03
2.081999999999999921e-04 1.950859988578999005e-01 3.870314100985603909e-04 1.950065624557156818e-03
2.090999999999999868e-04 1.959309855029948977e-01 3.881261957135444685e-04 6.411875526909013856e-04
2.159999999999999919e-04 2.024093317906446865e-01 3.940874488768042125e-04 1.199166870571831411e-03
2.231000000000000019e-04 2.090756740932291913e-01 4.013938420547467825e-04 9.928616047829054436e-04
2.311000000000000066e-04 2.165873044433437034e-01 4.085241694843774404e-04 9.056166966301716637e-04
2.401000000000000085e-04 2.250381721984245909e-01 4.159700687886608468e-04 8.565463878902855599e-04
2.500000000000000052e-04 2.343344406330727658e-01 4.237602369176299592e-04 8.194318812157330018e-04
2.642999999999999733e-04 2.477629128650125634e-01 4.345596643180389446e-04 7.890063723638815647e-04
3.052999999999999941e-04 2.862671839140227270e-01 4.644058706720978241e-04 7.612775562167708662e-04
3.533000000000000224e-04 3.313503829113090826e-01 4.987577676308450197e-04 7.626578558207241024e-04
4.075999999999999871e-04 3.823564017794535141e-01 5.381334366106255759e-04 7.813048116943254948e-04
4.679999999999999915e-04 4.390986251953180042e-01 5.832692638200615834e-04 8.096035963157804938e-04
5.341000000000000261e-04 5.012024644415256081e-01 6.346556894078133086e-04 8.452514814113673558e-04
6.059000000000000366e-04 5.686690698184251325e-01 6.930641302632923034e-04 8.862253587289389486e-04
7.661000000000000275e-04 7.192254882508629654e-01 8.328184776562496576e-04 9.702780530519144065e-04
1.262000000000000101e-03 1.185459127778160093e+00 1.338484980802662205e-03 1.198863597978450275e-03
1.894999999999999983e-03 1.780909071169781921e+00 2.123481960401060308e-03 1.437771491635827115e-03
2.673000000000000029e-03 2.513147344746868850e+00 3.261860252001994032e-03 1.671524566936786766e-03
3.605999999999999830e-03 3.391736073717691369e+00 4.828136641022434151e-03 1.893900408978071038e-03
4.709999999999999777e-03 4.431905410739045870e+00 6.903512974832482635e-03 2.096551352830673849e-03
7.496000000000000059e-03 7.058993649504918366e+00 1.289742191321638018e-02 2.466596387205546859e-03
1.119999999999999989e-02 1.055540362104863661e+01 2.212077014004794340e-02 2.809304433764861584e-03
1.600000000000000033e-02 1.509117352747679952e+01 3.559566804390756900e-02 3.132325055719984222e-03
2.206999999999999934e-02 2.083310616724802244e+01 5.457322122755020599e-02 3.477840948757840792e-03
2.947999999999999926e-02 2.785007348564149154e+01 8.049103664263126956e-02 3.909302116317729670e-03
4.268000000000000266e-02 4.036707211535221518e+01 1.353887601042819133e-01 4.862066536253286525e-03
6.219999999999999835e-02 5.891246509830522626e+01 2.419691225623893105e-01 6.630786177272363080e-03
7.316999999999999893e-02 6.935151695866235855e+01 3.161896974764099033e-01 7.588671314871411888e-03
7.595999999999999974e-02 7.200836722020332559e+01 3.371250777904805096e-01 8.170805199905812125e-03
7.685877551020407761e-02 7.286441683708206085e+01 3.442124550596628585e-01 8.387518644574092075e-03
7.775755102040816935e-02 7.372055044694529613e+01 3.514908745676082469e-01 8.615470743404889803e-03
7.865632653061224722e-02 7.457676934210171282e+01 3.589698750489987988e-01 8.854351669479381542e-03
7.955510204081632508e-02 7.543307489284248391e+01 3.666587343730644544e-01 9.103851595878759140e-03
8.045387755102040295e-02 7.628946854185052473e+01 3.745664695483567064e-01 9.363660695684209237e-03
8.135265306122449469e-02 7.714595179885994014e+01 3.827018367264162224e-01 9.633469141976916741e-03
8.225142857142857256e-02 7.800252623555135756e+01 3.910733312033008446e-01 9.912967107838059622e-03
8.315020408163265042e-02 7.885919348067045576e+01 3.996891874180347748e-01 1.020184476634882625e-02
8.404897959183672829e-02 7.971595521535780904e+01 4.085573789471224071e-01 1.049979229059040328e-02
8.494775510204082003e-02 8.057281316867783971e+01 4.176856184943535943e-01 1.080649985364398602e-02
8.584653061224489790e-02 8.142976911333742862e+01 4.270813578751982420e-01 1.112165762859073856e-02
8.674530612244897576e-02 8.228682486158324139e+01 4.367517879951606785e-01 1.144495578851186142e-02
8.764408163265305363e-02 8.314398226126927227e+01 4.467038388215241462e-01 1.177608450648853777e-02
8.854285714285714537e-02 8.400124319208482859e+01 4.569441793479810943e-01 1.211473395560195600e-02
8.944163265306122323e-02 8.485860956193580762e+01 4.674792175516968573e-01 1.246059430893328886e-02
9.034040816326530110e-02 8.571608330347073945e+01 4.783151003424109815e-01 1.281335573956372820e-02
9.123918367346939284e-02 8.657366637074424887e+01 4.894577135032250337e-01 1.317270842057446413e-02
9.213795918367347071e-02 8.743136073601210967e+01 5.009126816227752466e-01 1.353834252504667809e-02
9.303673469387754857e-02 8.828916838664983402e+01 5.126853680185324835e-01 1.390994822606155153e-02
9.393551020408162644e-02 8.914709132219020660e+01 5.247808746510064237e-01 1.428721569670027454e-02
9.483428571428570431e-02 9.000513155147280031e+01 5.372040420286766649e-01 1.466983511004403204e-02
9.573306122448979605e-02 9.086329108990113923e+01 5.499594491035038057e-01 1.505749663917401240e-02
9.663183673469387391e-02 9.172157195680119912e+01 5.630514131569077652e-01 1.544989045717139534e-02
9.753061224489795178e-02 9.257997617287816183e+01 5.764839896761363436e-01 1.584670673711736227e-02
9.842938775510204352e-02 9.343850575776409073e+01 5.902609722209690712e-01 1.624763565209311200e-02
9.932816326530612139e-02 9.429716272765577401e+01 6.043858922807362477e-01 1.665236737517981555e-02
1.002269387755101993e-01 9.515594909303518989e+01 6.188620191216579469e-01 1.706059207945866477e-02
1.011257142857142910e-01 9.601486685647138586e+01 6.336923596245287449e-01 1.747199993801084802e-02
1.020244897959183689e-01 9.687391801049820117e+01 6.488796581128009056e-01 1.788628112391754676e-02
1.029232653061224467e-01 9.773310453556605637e+01 6.644263961711434074e-01 1.830312581025993895e-02
1.038220408163265246e-01 9.859242839806287861e+01 6.803347924545671832e-01 1.872222417011921991e-02
1.047208163265306025e-01 9.945189154840245749e+01 6.966068024882348109e-01 1.914326637657658148e-02
1.056195918367346942e-01 1.003114959191761528e+02 7.132441184580878835e-01 1.956594260271319469e-02
1.065183673469387721e-01 1.011712434233663345e+02 7.302481689924421593e-01 1.998994302161025138e-02
1.074171428571428499e-01 1.020311359526176318e+02 7.476201189347225773e-01 2.041495780634892260e-02
1.083159183673469417e-01 1.028911753755644156e+02 7.653608691075182158e-01 2.084067713001042446e-02
1.092146938775510195e-01 1.037513635362117839e+02 7.834710560681591440e-01 2.126679116567591066e-02
1.101134693877550974e-01 1.046117022523675786e+02 8.019510518560313272e-01 2.169299008642658344e-02
1.110122448979591891e-01 1.054721933141241692e+02 8.208009637318536278e-01 2.211896406534363119e-02
1.119110204081632531e-01 1.063328384823861086e+02 8.400206339091591534e-01 2.254440327550822493e-02
1.128097959183673449e-01 1.071936394874440452e+02 8.596096392782401896e-01 2.296899789000156344e-02
1.137085714285714227e-01 1.080545980275912683e+02 8.795672911228094026e-01 2.339243808190481777e-02
1.146073469387755006e-01 1.089157157677816770e+02 8.998926348296699684e-01 2.381441402429918669e-02
1.155061224489795924e-01 1.097769943383277962e+02 9.205844495916694070e-01 2.423461589026584817e-02
1.164048979591836702e-01 1.106384353336370339e+02 9.416412481042411020e-01 2.465273385288599059e-02
1.173036734693877481e-01 1.115000403109843177e+02 9.630612762558427020e-01 2.506845808524079885e-02
1.182024489795918398e-01 1.123618107893200886e+02 9.848425128126042649e-01 2.548147876041145787e-02
1.191012244897959177e-01 1.132237482481120878e+02 1.006982669097514993e+00 2.589148605147915255e-02
1.199999999999999956e-01 1.140858541262198571e+02 1.029479188664486955e+00 2.629817013152506433e-02
1.239711776904442453e-01 1.178970770970218638e+02 1.133090233609853170e+00 2.807270094293230420e-02
1.279423553808884950e-01 1.217117290815503736e+02 1.243616229602241496e+00 2.987473229682062470e-02
1.319135330713327725e-01 1.255299201094190380e+02 1.361174223601600897e+00 3.170237701938466435e-02
1.358847107617770222e-01 1.293517570178546805e+02 1.485875228606819309e+00 3.355395810088851460e-02
1.398558884522212720e-01 1.331773435663120608e+02 1.617824986414049260e+00 3.542800233098064577e-02
1.438270661426655217e-01 1.370067805594162280e+02 1.757124707822027343e+00 3.732323346091896699e-02
1.477982438331097992e-01 1.408401659764430462e+02 1.903871788930521669e+00 3.923856496467681421e-02
1.517694215235540489e-01 1.446775951057984457e+02 2.058160502376581658e+00 4.117309246326134042e-02
1.557405992139982986e-01 1.485191606831766364e+02 2.220082662528804374e+00 4.312608586980424402e-02
1.597117769044425484e-01 1.523649530322491330e+02 2.389728263815284581e+00 4.509698130692744306e-02
1.636829545948867981e-01 1.562150602068970784e+02 2.567186091498986134e+00 4.708537284247715782e-02
1.676541322853310478e-01 1.600695681341209422e+02 2.752544304337011916e+00 4.909100408487410139e-02
1.716253099757753253e-01 1.639285607568771468e+02 2.945890988669683352e+00 5.111375967500766948e-02
1.755964876662195751e-01 1.677921201761851648e+02 3.147314683583146255e+00 5.315365670776511786e-02
1.795676653566638248e-01 1.716603267919278721e+02 3.356904876877044419e+00 5.521083611291117271e-02
1.835388430471081023e-01 1.755332594418450469e+02 3.574752471648019903e+00 5.728555402209851988e-02
1.875100207375523520e-01 1.794109955382752446e+02 3.800950223372013603e+00 5.937817314628275611e-02
1.914811984279966017e-01 1.832936112022601094e+02 4.035593147434779482e+00 6.148915418572587638e-02
1.954523761184408515e-01 1.871811813946731036e+02 4.278778897122071712e+00 6.361904729309579565e-02
1.994235538088851012e-01 1.910737800440724925e+02 4.530608112140100729e+00 6.576848360890047429e-02
2.033947314993293509e-01 1.949714801710213976e+02 4.791184737794253579e+00 6.793816688763448797e-02
2.073659091897736284e-01 1.988743540086481971e+02 5.060616315011280619e+00 7.012886523256293969e-02
2.113370868802178781e-01 2.027824731192496017e+02 5.339014241448490239e+00 7.234140295702572165e-02
2.153082645706621279e-01 2.066959085067706212e+02 5.626494003994538140e+00 7.457665259052209672e-02
2.192794422611064054e-01 2.106147307250136294e+02 5.923175383031494157e+00 7.683552704863319538e-02
2.232506199515506551e-01 2.145390099814591451e+02 6.229182628898870533e+00 7.911897198707534828e-02
2.272217976419949048e-01 2.184688162365958135e+02 6.544644611078707541e+00 8.142795836185698355e-02
2.311929753324391545e-01 2.224042192986845521e+02 6.869694940708398256e+00 8.376347521965238352e-02
2.351641530228834043e-01 2.263452889138901014e+02 7.204472067126799217e+00 8.612652274512594408e-02
2.391353307133276540e-01 2.302920948517473789e+02 7.549119349271095736e+00 8.851810559505965403e-02
2.431065084037719315e-01 2.342447069859335329e+02 7.903785102869187895e+00 9.093922655277555944e-02
2.470776860942161812e-01 2.382031953703468901e+02 8.268622624517304232e+00 9.339088054053235055e-02
2.510488637846604032e-01 2.421676303105053023e+02 8.643790193897649132e+00 9.587404903233703868e-02
2.550200414751047084e-01 2.461380824303019210e+02 9.029451055578750385e+00 9.838969491497741304e-02
2.589912191655489582e-01 2.501146227341722863e+02 9.425773382054705607e+00 1.009387578510811123e-01
2.629623968559932079e-01 2.540973226647546994e+02 9.832930219922003445e+00 1.035221502046768105e-01
2.669335745464374576e-01 2.580862541561410239e+02 1.025109942136668018e+01 1.061407535970969318e-01
2.709047522368817074e-01 2.620814896828495648e+02 1.068046356344468606e+01 1.087954161691584848e-01
2.748759299273260126e-01 2.660831023046731616e+02 1.112120985798730644e+01 1.114869506344069727e-01
2.788471076177702068e-01 2.700911657075873222e+02 1.157353005535575008e+01 1.142161332178361910e-01
2.828182853082145121e-01 2.741057542409394614e+02 1.203762034570865147e+01 1.169837035849117662e-01
2.867894629986587063e-01 2.781269429511708040e+02 1.251368126193677099e+01 1.197903658769300245e-01
2.907606406891030115e-01 2.821548076123693249e+02 1.300191758896649930e+01 1.226367909807210416e-01
2.947318183795472613e-01 2.861894247539883622e+02 1.350253828473977258e+01 1.255236201734108437e-01
2.987029960699915110e-01 2.902308716861242033e+02 1.401575641884991619e+01 1.284514702963441002e-01
3.026741737604357607e-01 2.942792265227888038e+02 1.454178913555172237e+01 1.314209406261974689e-01
3.066453514508800104e-01 2.983345682036784297e+02 1.508085764867591472e+01 1.344326216256509499e-01
3.106165291413242602e-01 3.023969765150044395e+02 1.563318727686434073e+01 1.374871057705285005e-01
3.145877068317685099e-01 3.064665321100160327e+02 1.619900752850572090e+01 1.405850006647573480e-01
3.898002026107120210e-01 3.855059242714471566e+02 3.530958128461000456e+01 3.371542130442793939e-01
4.650126983896555322e-01 4.697033410403716971e+02 7.239615859543984300e+01 5.337234254238014675e-01
5.402251941685989323e-01 5.611549410362773642e+02 1.227059262576796073e+02 5.653001573052499618e-01
6.154376899475424434e-01 6.600978417377820051e+02 1.799780151730640227e+02 5.914540106708233713e-01
6.906501857264859545e-01 7.664656828765450882e+02 2.443311111584975492e+02 6.176078640363966699e-01
7.658626815054294656e-01 8.802401313583056890e+02 3.161417336799062809e+02 6.437617174019700794e-01
8.410751772843729768e-01 1.001233246068756330e+03 3.850166641245685923e+02 5.010546576534838925e-01
9.162876730633164879e-01 1.127707700977454124e+03 4.388870940048611828e+02 3.548266227827111541e-01
9.915001688422599990e-01 1.257868004945504254e+03 4.754145614502578496e+02 2.085985879119384157e-01
1.066712664621203510e+00 1.390235302210911868e+03 4.985489224665594747e+02 1.414803838430635785e-01
1.141925160400147021e+00 1.524230783988193707e+03 5.234804002035856456e+02 2.300052123066733401e-01
1.217137656179090310e+00 1.660251715609496387e+03 5.608504558146588579e+02 3.185300407702827963e-01
1.292350151958034044e+00 1.798959251866198429e+03 6.112587874347537991e+02 4.070548692338928909e-01
1.367562647736977333e+00 1.940904145400676953e+03 6.707130880172639991e+02 4.303406205677185459e-01
1.442775143515921066e+00 2.086192127093723229e+03 7.313045170631970677e+02 4.042286245131876954e-01
1.517987639294864355e+00 2.234573717980367746e+03 7.893164160384186516e+02 3.781166284586569559e-01
1.593200135073808088e+00 2.385760920851440460e+03 8.444817296568141956e+02 3.520046324041261054e-01
1.668412630852751377e+00 2.539481002562190952e+03 8.965611665812168667e+02 3.258926363495954215e-01
1.743625126631695110e+00 2.695475637410170293e+03 9.453413340770430295e+02 2.997806402950645155e-01
1.818837622410638399e+00 2.853500120892158520e+03 9.906330051545776314e+02 2.736686442405338315e-01
1.894050118189582133e+00 3.013322644460420179e+03 1.032269504630041411e+03 2.475566481860029533e-01
1.969262613968525422e+00 3.174723623642449184e+03 1.070105202684278538e+03 2.214446521314722416e-01
2.044475109747469155e+00 3.337495073238174882e+03 1.104014106192897088e+03 1.953326560769413911e-01
2.119687605526412444e+00 3.501440024365808313e+03 1.133888539456409262e+03 1.692206600224106516e-01
