# density  energy_density  pressure   sound_speed_squared  [All in nuclear units]
2.720000000000000022e-14 2.529924618736292620e-11 1.061056609100270887e-19 3.766610435412189122e-08
1.269999999999999890e-13 1.181251617980081254e-10 4.870113551826584858e-18 6.497781477172163475e-08
6.929999999999999754e-13 6.445728594625782745e-10 1.018299070687946017e-16 3.033770597342807186e-07
6.295000000000000137e-12 5.855111460395753757e-09 5.487150723824490656e-15 1.763710043904196507e-06
1.581000000000000150e-11 1.470523320212576141e-08 2.904239460150760759e-14 3.559434472327477622e-06
3.971999999999999958e-11 3.694456170323160790e-08 1.439340266754906811e-13 6.772854871245677111e-06
9.975999999999999982e-11 9.278976412613005154e-08 6.812143616221268841e-13 1.246890511177539320e-05
2.505999999999999928e-10 2.330928829758143313e-07 3.107749196951638608e-12 2.212095130576091967e-05
6.294000000000000186e-10 5.854398883216247602e-07 1.363250409771533549e-11 3.761981047239428883e-05
1.581000000000000021e-09 1.470619631082054101e-06 5.726014178088476303e-11 6.095350986710739404e-05
3.971999999999999932e-09 3.694861084648016046e-06 2.210019573374265380e-10 8.628023653304385055e-05
5.000000000000000105e-09 4.651201787816927976e-06 3.071485916280120014e-10 9.387863480799757518e-05
9.975999999999999465e-09 9.280587964640925786e-06 8.385361004129998845e-10 1.356922228656245837e-04
1.989999999999999952e-08 1.851419242998081003e-05 2.287763168863418088e-09 1.782101978513718314e-04
3.972999999999999908e-08 3.696699295748789187e-05 6.061583099087538954e-09 2.308134738384234820e-04
7.925999999999999637e-08 7.375765469301719828e-05 1.575347858094044765e-08 2.960532096713864875e-04
1.580999999999999930e-07 1.471491184379128891e-04 3.910429618672550719e-08 3.402859755131850544e-04
1.991000000000000027e-07 1.853209783927820692e-04 5.252045687899177454e-08 3.626488188833278743e-04
3.155999999999999938e-07 2.938002528823880299e-04 9.730770378831954314e-08 4.630767356912104081e-04
5.000999999999999849e-07 4.656344063839075714e-04 1.837494945860225819e-07 5.430301232045120323e-04
6.295999999999999732e-07 5.862651417037388971e-04 2.503103884558263872e-07 5.605192962670089638e-04
9.666999999999999941e-07 9.003386739730535665e-04 4.324450868778576936e-07 5.993081670211623108e-04
1.531999999999999901e-06 1.427170885631398036e-03 7.780217275717420968e-07 7.125938556504039095e-04
2.506999999999999883e-06 2.336134972129507662e-03 1.471005394641589826e-06 8.121876172121876309e-04
3.974000000000000407e-06 3.704315759716615697e-03 2.695705763844323844e-06 9.780674166779417152e-04
4.830000000000000343e-06 4.502887798316278223e-03 3.503988717694660908e-06 1.046253037768318664e-03
6.080999999999999885e-06 5.670217999231269741e-03 4.731126407333307547e-06 1.056224360839501646e-03
7.930000000000000308e-06 7.396012414119570652e-03 6.599662989063778187e-06 1.109203753630785610e-03
9.982000000000000313e-06 9.311815711689977113e-03 8.879881089227186733e-06 1.271216815433141075e-03
1.256999999999999993e-05 1.172874412604260098e-02 1.207676739913533738e-05 1.374195438212825332e-03
1.521999999999999997e-05 1.420427250933824909e-02 1.547541302213394990e-05 1.371610497379100249e-03
1.991000000000000080e-05 1.858690797761085312e-02 2.160710455847765458e-05 1.426578142835871997e-03
2.506999999999999883e-05 2.341050104039446925e-02 2.908031724375689851e-05 1.672007475975408053e-03
2.790999999999999875e-05 2.606604784714952258e-02 3.357009132255487721e-05 1.709425557744154774e-03
3.806999999999999973e-05 3.556967988784798945e-02 4.986781576435106434e-05 1.720407281314112165e-03
5.063000000000000145e-05 4.732434580343149871e-02 7.073400252905581275e-05 1.829889149838781265e-03
6.592000000000000583e-05 6.164112392498975052e-02 9.765037643900635188e-05 1.930242980462695823e-03
8.433000000000000066e-05 7.888776783401378612e-02 1.317235490470395893e-04 2.021055815200022837e-03
1.062000000000000064e-04 9.938561165478684845e-02 1.740088341640037047e-04 2.104789529260958983e-03
1.321000000000000126e-04 1.236720406455826121e-01 2.260189757651373944e-04 2.178291718403657477e-03
1.623999999999999901e-04 1.520974545104751274e-01 2.888169908545388338e-04 2.240170365918073281e-03
1.689999999999999879e-04 1.582907717069566844e-01 3.027354772999506964e-04 2.254509350360745651e-03
1.758999999999999930e-04 1.647661861691531171e-01 3.173785841705756782e-04 2.268169273277113179e-03
1.830000000000000029e-04 1.714298948183871907e-01 3.325196584577469103e-04 2.276170334580628063e-03
1.901999999999999882e-04 1.781880600978280049e-01 3.479577791899843742e-04 2.292561569242367037e-03
1.977000000000000079e-04 1.852284385240466902e-01 3.641242634600037713e-04 2.299943765467868384e-03
2.054000000000000053e-04 1.924572004474696396e-01 3.808304060475003897e-04 2.322187632288155723e-03
2.079000000000000119e-04 1.948043378760714872e-01 3.864137987380476553e-04 2.435429768083530178e-03
2.081999999999999921e-04 1.950859988578999005e-01 3.870314100985603909e-04 1.950065624557156818e-03
2.090999999999999868e-04 1.959309855029948977e-01 3.881261957135444685e-04 6.411875526909013856e-04
2.159999999999999919e-04 2.024093317906446865e-01 3.940874488768042125e-04 1.199166870571831411e-03
2.231000000000000019e-04 2.090756740932291913e-01 4.013938420547467825e-04 9.928616047829054436e-04
2.311000000000000066e-04 2.165873044433437034e-01 4.085241694843774404e-04 9.056166966301716637e-04
2.401000000000000085e-04 2.250381721984245909e-01 4.159700687886608468e-04 8.565463878902855599e-04
2.500000000000000052e-04 2.343344406330727658e-01 4.237602369176299592e-04 8.194318812157330018e-04
2.642999999999999733e-04 2.477629128650125634e-01 4.345596643180389446e-04 7.890063723638815647e-04
3.052999999999999941e-04 2.862671839140227270e-01 4.644058706720978241e-04 7.612775562167708662e-04
3.533000000000000224e-04 3.313503829113090826e-01 4.987577676308450197e-04 7.626578558207241024e-04
4.075999999999999871e-04 3.823564017794535141e-01 5.381334366106255759e-04 7.813048116943254948e-04
4.679999999999999915e-04 4.390986251953180042e-01 5.832692638200615834e-04 8.096035963157804938e-04
5.341000000000000261e-04 5.012024644415256081e-01 6.346556894078133086e-04 8.452514814113673558e-04
6.059000000000000366e-04 5.686690698184251325e-01 6.930641302632923034e-04 8.862253587289389486e-04
7.661000000000000275e-04 7.192254882508629654e-01 8.328184776562496576e-04 9.702780530519144065e-04
1.262000000000000101e-03 1.185459127778160093e+00 1.338484980802662205e-03 1.198863597978450275e-03
1.894999999999999983e-03 1.780909071169781921e+00 2.123481960401060308e-03 1.437771491635827115e-03
2.673000000000000029e-03 2.513147344746868850e+00 3.261860252001994032e-03 1.671524566936786766e-03
3.605999999999999830e-03 3.391736073717691369e+00 4.828136641022434151e-03 1.893900408978071038e-03
4.709999999999999777e-03 4.431905410739045870e+00 6.903512974832482635e-03 2.096551352830673849e-03
7.496000000000000059e-03 7.058993649504918366e+00 1.289742191321638018e-02 2.466596387205546859e-03
1.119999999999999989e-02 1.055540362104863661e+01 2.212077014004794340e-02 2.809304433764861584e-03
1.600000000000000033e-02 1.509117352747679952e+01 3.559566804390756900e-02 3.132325055719984222e-03
2.206999999999999934e-02 2.083310616724802244e+01 5.457322122755020599e-02 3.477840948757840792e-03
2.947999999999999926e-02 2.785007348564149154e+01 8.049103664263126956e-02 3.909302116317729670e-03
4.268000000000000266e-02 4.036707211535221518e+01 1.353887601042819133e-01 4.862066536253286525e-03
6.219999999999999835e-02 5.891246509830522626e+01 2.419691225623893105e-01 6.630786177272363080e-03
7.316999999999999893e-02 6.935151695866235855e+01 3.161896974764099033e-01 7.588671314871411888e-03
7.595999999999999974e-02 7.200836722020332559e+01 3.371250777904805096e-01 8.170805199905813859e-03
7.685877551020407761e-02 7.286441681680670968e+01 3.442089852244323289e-01 8.379412816264045216e-03
7.775755102040816935e-02 7.372055031258449276e+01 3.514747742462037694e-01 8.594073632797396764e-03
7.865632653061224722e-02 7.457676887029630564e+01 3.589276853974558423e-01 8.814815791988757712e-03
7.955510204081632508e-02 7.543307368616454767e+01 3.665729859249720057e-01 9.041667436321034618e-03
8.045387755102040295e-02 7.628946598904238385e+01 3.744159698559765825e-01 9.274656708277128833e-03
8.135265306122449469e-02 7.714594703961920175e+01 3.824619580752149361e-01 9.513811750339943446e-03
8.225142857142857256e-02 7.800251812966314446e+01 3.907162984037707565e-01 9.759160704992371135e-03
8.315020408163265042e-02 7.885918058129662711e+01 3.991843656796017492e-01 1.001073171471731846e-02
8.404897959183672829e-02 7.971593574630456658e+01 4.078715618397709686e-01 1.026855292199768156e-02
8.494775510204082003e-02 8.057278500547282363e+01 4.167833160043585283e-01 1.053265246931637394e-02
8.584653061224489790e-02 8.142972976795601880e+01 4.259250845620357051e-01 1.080305849915627787e-02
8.674530612244897576e-02 8.228677147067205055e+01 4.353023512572881115e-01 1.107979915400030338e-02
8.764408163265305363e-02 8.314391157772317342e+01 4.449206272792725070e-01 1.136290257633135528e-02
8.854285714285714537e-02 8.400115157984150471e+01 4.547854513522960329e-01 1.165239690863232799e-02
8.944163265306122323e-02 8.485849299385790800e+01 4.649023898279056599e-01 1.194831029338612113e-02
9.034040816326530110e-02 8.571593736219351456e+01 4.752770367785795758e-01 1.225067087307564299e-02
9.123918367346939284e-02 8.657348625237170836e+01 4.859150140930085793e-01 1.255950679018378625e-02
9.213795918367347071e-02 8.743114125655141322e+01 4.968219715729608188e-01 1.287484618719345573e-02
9.303673469387754857e-02 8.828890399107828557e+01 5.080035870317236579e-01 1.319671720658755106e-02
9.393551020408162644e-02 8.914677609605514874e+01 5.194655663941132318e-01 1.352514799084896836e-02
9.483428571428570431e-02 9.000475923492929553e+01 5.312136437980485848e-01 1.386016668246061595e-02
9.573306122448979605e-02 9.086285509409681538e+01 5.432535816976843401e-01 1.420180142390539690e-02
9.663183673469387391e-02 9.172106538252226926e+01 5.555911709680965149e-01 1.455008035766619870e-02
9.753061224489795178e-02 9.257939183137408179e+01 5.682322310115215380e-01 1.490503162622593136e-02
9.842938775510204352e-02 9.343783619367378890e+01 5.811826098651406980e-01 1.526668337206750145e-02
9.932816326530612139e-02 9.429640024395943954e+01 5.944481843104104657e-01 1.563506373767379123e-02
1.002269387755101993e-01 9.515508577796225609e+01 6.080348599839374701e-01 1.601020086552772115e-02
1.011257142857142910e-01 9.601389461229531719e+01 6.219485714898944639e-01 1.639212289811218387e-02
1.020244897959183689e-01 9.687282858415525766e+01 6.361952825139771672e-01 1.678085797791007555e-02
1.029232653061224467e-01 9.773188955103458397e+01 6.507809859389045437e-01 1.717643424740429581e-02
1.038220408163265246e-01 9.859107939044538682e+01 6.657117039614575127e-01 1.757887984907775467e-02
1.047208163265306025e-01 9.945039999965398181e+01 6.809934882110612042e-01 1.798822292541334480e-02
1.056195918367346942e-01 1.003098532954251993e+02 6.966324198699093140e-01 1.840449161889397972e-02
1.065183673469387721e-01 1.011694412137765937e+02 7.126346097946318903e-01 1.882771407200254515e-02
1.074171428571428499e-01 1.020291657097420028e+02 7.290061986395109939e-01 1.925791842722194766e-02
1.083159183673469417e-01 1.028890287571441604e+02 7.457533569812422325e-01 1.969513282703509033e-02
1.092146938775510195e-01 1.037490323483755077e+02 7.628822854452468327e-01 2.013938541392486584e-02
1.101134693877550974e-01 1.046091784941877592e+02 7.803992148335390233e-01 2.059070433037418768e-02
1.110122448979591891e-01 1.054694692234890425e+02 7.983104062541473978e-01 2.104911771886594854e-02
1.119110204081632531e-01 1.063299065831490680e+02 8.166221512520958070e-01 2.151465372188303762e-02
1.128097959183673449e-01 1.071904926378107206e+02 8.353407719419516653e-01 2.198734048190838231e-02
1.137085714285714227e-01 1.080512294697100941e+02 8.544726211419345629e-01 2.246720614142485792e-02
1.146073469387755006e-01 1.089121191785019107e+02 8.740240825096036170e-01 2.295427884291538490e-02
1.155061224489795924e-01 1.097731638810923300e+02 8.940015706791165639e-01 2.344858672886285592e-02
1.164048979591836702e-01 1.106343657114778694e+02 9.144115314000704764e-01 2.395015794175016366e-02
1.173036734693877481e-01 1.114957268205902778e+02 9.352604416779300989e-01 2.445902062406021468e-02
1.182024489795918398e-01 1.123572493761470810e+02 9.565548099160456896e-01 2.497520291827592595e-02
1.191012244897959177e-01 1.132189355625083209e+02 9.783011760592664752e-01 2.549873296688016933e-02
1.199999999999999956e-01 1.140807875805377734e+02 1.000506111739159598e+00 2.602963891235586524e-02
1.209188977794344033e-01 1.149621089676360413e+02 1.023688762191412582e+00 2.657915695448182306e-02
1.218377955588688111e-01 1.158436083867056965e+02 1.047361974628357340e+00 2.713202996736373274e-02
1.227566933383032188e-01 1.167252882068892745e+02 1.071528942087084157e+00 2.768819860062993882e-02
1.236755911177376266e-01 1.176071507855877627e+02 1.096192810887212987e+00 2.824760397794669892e-02
1.245944888971720343e-01 1.184891984683766708e+02 1.121356681025620583e+00 2.881018770121331410e-02
1.255133866766064421e-01 1.193714335889272888e+02 1.147023606573403631e+00 2.937589185462312694e-02
1.264322844560408499e-01 1.202538584689336574e+02 1.173196596075008813e+00 2.994465900859117138e-02
1.273511822354752576e-01 1.211364754180440713e+02 1.199878612949454526e+00 3.051643222355413659e-02
1.282700800149096654e-01 1.220192867337978271e+02 1.227072575893576545e+00 3.109115505364049015e-02
1.291889777943440731e-01 1.229022947015663192e+02 1.254781359287231890e+00 3.166877155021953494e-02
1.301078755737784809e-01 1.237855015944993795e+02 1.283007793600392521e+00 3.224922626532596842e-02
1.310267733532128887e-01 1.246689096734748290e+02 1.311754665802068454e+00 3.283246425496627596e-02
1.319456711326472964e-01 1.255525211870534434e+02 1.341024719770997686e+00 3.341843108230772852e-02
1.328645689120817042e-01 1.264363383714380547e+02 1.370820656708043428e+00 3.400707282075240978e-02
1.337834666915161119e-01 1.273203634504351527e+02 1.401145135550240672e+00 3.459833605689925651e-02
1.347023644709505197e-01 1.282045986354225136e+02 1.432000773386436165e+00 3.519216789339370960e-02
1.356212622503849274e-01 1.290890461253189017e+02 1.463390145874466475e+00 3.578851595167140132e-02
1.365401600298193352e-01 1.299737081065580639e+02 1.495315787659821094e+00 3.638732837459357494e-02
1.374590578092537430e-01 1.308585867530665325e+02 1.527780192795739067e+00 3.698855382897854593e-02
1.383779555886881507e-01 1.317436842262440564e+02 1.560785815164687840e+00 3.759214150803068255e-02
1.392968533681225585e-01 1.326290026749479978e+02 1.594335068901176156e+00 3.819804113366934151e-02
1.402157511475569662e-01 1.335145442354810541e+02 1.628430328815852146e+00 3.880620295875741865e-02
1.411346489269913462e-01 1.344003110315811114e+02 1.663073930820839763e+00 3.941657776923386536e-02
1.420535467064257817e-01 1.352863051744153893e+02 1.698268172356274475e+00 4.002911688615129471e-02
1.429724444858601617e-01 1.361725287625764906e+02 1.734015312817971610e+00 4.064377216761868444e-02
1.438913422652945973e-01 1.370589838820821740e+02 1.770317573986227577e+00 4.126049601065264610e-02
1.448102400447289773e-01 1.379456726063765188e+02 1.807177140455651365e+00 4.187924135293884242e-02
1.457291378241634128e-01 1.388325969963361501e+02 1.844596160066053203e+00 4.249996167450382362e-02
1.466480356035977928e-01 1.397197591002760646e+02 1.882576744334279795e+00 4.312261099929985686e-02
1.475669333830322005e-01 1.406071609539602605e+02 1.921120968887026104e+00 4.374714389670417841e-02
1.484858311624666083e-01 1.414948045806143568e+02 1.960230873894522441e+00 4.437351548293377163e-02
1.494047289419010160e-01 1.423826919909394633e+02 1.999908464505105510e+00 4.500168142237754437e-02
1.503236267213354238e-01 1.432708251831298583e+02 2.040155711280612572e+00 4.563159792884700916e-02
1.512425245007698316e-01 1.441592061428920601e+02 2.080974550632569198e+00 4.626322176674695086e-02
1.521614222802042393e-01 1.450478368434663423e+02 2.122366885259137526e+00 4.689651025216765717e-02
1.530803200596386471e-01 1.459367192456498969e+02 2.164334584582785492e+00 4.753142125389966249e-02
1.539992178390730548e-01 1.468258552978233240e+02 2.206879485188648626e+00 4.816791319437280228e-02
1.549181156185074626e-01 1.477152469359772340e+02 2.250003391263546426e+00 4.880594505052038984e-02
1.558370133979418704e-01 1.486048960837427444e+02 2.293708075035625793e+00 4.944547635457020168e-02
1.567559111773762781e-01 1.494948046524225731e+02 2.337995277214595102e+00 5.008646719476327058e-02
1.576748089568106859e-01 1.503849745410241212e+02 2.382866707432521824e+00 5.072887821600174235e-02
1.585937067362450936e-01 1.512754076362951992e+02 2.428324044685159055e+00 5.137267062042721183e-02
1.595126045156795014e-01 1.521661058127603496e+02 2.474368937773776089e+00 5.201780616793038464e-02
1.604315022951139091e-01 1.530570709327598706e+02 2.521003005747458836e+00 5.266424717659365373e-02
1.613504000745483169e-01 1.539483048464894637e+02 2.568227838345853886e+00 5.331195652306718047e-02
1.622692978539827247e-01 1.548398093920429517e+02 2.616044996442328241e+00 5.396089764288031915e-02
1.631881956334171324e-01 1.557315863954544852e+02 2.664456012487514069e+00 5.461103453068874569e-02
1.641070934128515402e-01 1.566236376707444720e+02 2.713462390953216730e+00 5.526233174045924040e-02
1.650259911922859479e-01 1.575159650199655346e+02 2.763065608776652748e+00 5.591475438559221495e-02
2.432907668822393010e-01 2.360192173374661309e+02 1.663550985776203461e+01 2.890680829387303752e-01
3.215555425721926541e-01 3.208821403875055012e+02 4.139837918501025626e+01 2.952144616685740131e-01
3.998203182621460350e-01 4.121078910659637131e+02 6.859252438964273324e+01 3.013608403984175954e-01
4.780850939520993603e-01 5.088995136846119181e+02 9.804809198948436233e+01 3.075072191282612333e-01
5.563498696420527967e-01 6.107022072042706213e+02 1.296586844212508822e+02 3.136535978581048711e-01
6.346146453320060665e-01 7.171065318578374672e+02 1.633549019822262380e+02 3.197999765879484535e-01
7.128794210219593364e-01 8.277977272581897523e+02 1.990909220115312905e+02 3.259463553177920914e-01
7.911441967119128282e-01 9.425264199354504626e+02 2.368369220832806548e+02 3.320927340476357292e-01
8.694089724018660981e-01 1.061090434329730215e+03 2.765744645949257574e+02 3.382391127774793116e-01
9.476737480918195899e-01 1.183322863811138177e+03 3.182935200412792938e+02 3.443854915073229495e-01
1.025938523781772860e+00 1.309083902321436653e+03 3.619904595699543961e+02 3.505318702371665873e-01
1.104203299471726130e+00 1.438255052062597315e+03 4.076666517544912267e+02 3.566782489670101697e-01
1.182468075161679621e+00 1.570734895477580721e+03 4.553274523627836743e+02 3.628246276968538075e-01
1.260732850851632891e+00 1.706435932959314187e+03 5.049814588840425245e+02 3.689710064266973899e-01
1.338997626541586383e+00 1.845282167949195809e+03 5.566399487825187862e+02 3.751173851565410278e-01
1.417262402231539653e+00 1.987207229345687210e+03 6.103164485138422606e+02 3.812637638863846101e-01
1.495527177921492923e+00 2.132152888596036064e+03 6.660263976673738853e+02 3.874101426162282480e-01
1.573791953611446415e+00 2.280067872219059609e+03 7.237868836462329227e+02 3.935565213460718859e-01
1.652056729301399685e+00 2.430906899177381092e+03 7.836164295418732308e+02 3.997029000759154682e-01
1.730321504991353176e+00 2.584629891933502677e+03 8.455348227299954260e+02 4.058492788057591061e-01
1.808586280681306446e+00 2.741201323458665229e+03 9.095629750602224703e+02 4.119956575356027439e-01
1.886851056371259716e+00 2.900589671939719665e+03 9.757228078556843229e+02 4.181420362654463263e-01
1.965115832061213208e+00 3.062766961730054391e+03 1.044037156609467047e+03 4.242884149952899642e-01
2.043380607751166256e+00 3.227708374048201676e+03 1.114529691474981064e+03 4.304347937251336020e-01
