# density  energy_density  pressure   sound_speed_squared  [All in nuclear units]
2.720000000000000022e-14 2.529924618736292620e-11 1.061056609100270887e-19 3.766610435412189122e-08
1.269999999999999890e-13 1.181251617980081254e-10 4.870113551826584858e-18 6.497781477172163475e-08
6.929999999999999754e-13 6.445728594625782745e-10 1.018299070687946017e-16 3.033770597342807186e-07
6.295000000000000137e-12 5.855111460395753757e-09 5.487150723824490656e-15 1.763710043904196507e-06
1.581000000000000150e-11 1.470523320212576141e-08 2.904239460150760759e-14 3.559434472327477622e-06
3.971999999999999958e-11 3.694456170323160790e-08 1.439340266754906811e-13 6.772854871245677111e-06
9.975999999999999982e-11 9.278976412613005154e-08 6.812143616221268841e-13 1.246890511177539320e-05
2.505999999999999928e-10 2.330928829758143313e-07 3.107749196951638608e-12 2.212095130576091967e-05
6.294000000000000186e-10 5.854398883216247602e-07 1.363250409771533549e-11 3.761981047239428883e-05
1.581000000000000021e-09 1.470619631082054101e-06 5.726014178088476303e-11 6.095350986710739404e-05
3.971999999999999932e-09 3.694861084648016046e-06 2.210019573374265380e-10 8.628023653304385055e-05
5.000000000000000105e-09 4.651201787816927976e-06 3.071485916280120014e-10 9.387863480799757518e-05
9.975999999999999465e-09 9.280587964640925786e-06 8.385361004129998845e-10 1.356922228656245837e-04
1.989999999999999952e-08 1.851419242998081003e-05 2.287763168863418088e-09 1.782101978513718314e-04
3.972999999999999908e-08 3.696699295748789187e-05 6.061583099087538954e-09 2.308134738384234820e-04
7.925999999999999637e-08 7.375765469301719828e-05 1.575347858094044765e-08 2.960532096713864875e-04
1.580999999999999930e-07 1.471491184379128891e-04 3.910429618672550719e-08 3.402859755131850544e-04
1.991000000000000027e-07 1.853209783927820692e-04 5.252045687899177454e-08 3.626488188833278743e-04
3.155999999999999938e-07 2.938002528823880299e-04 9.730770378831954314e-08 4.630767356912104081e-04
5.000999999999999849e-07 4.656344063839075714e-04 1.837494945860225819e-07 5.430301232045120323e-04
6.295999999999999732e-07 5.862651417037388971e-04 2.503103884558263872e-07 5.605192962670089638e-04
9.666999999999999941e-07 9.003386739730535665e-04 4.324450868778576936e-07 5.993081670211623108e-04
1.531999999999999901e-06 1.427170885631398036e-03 7.780217275717420968e-07 7.125938556504039095e-04
2.506999999999999883e-06 2.336134972129507662e-03 1.471005394641589826e-06 8.121876172121876309e-04
3.974000000000000407e-06 3.704315759716615697e-03 2.695705763844323844e-06 9.780674166779417152e-04
4.830000000000000343e-06 4.502887798316278223e-03 3.503988717694660908e-06 1.046253037768318664e-03
6.080999999999999885e-06 5.670217999231269741e-03 4.731126407333307547e-06 1.056224360839501646e-03
7.930000000000000308e-06 7.396012414119570652e-03 6.599662989063778187e-06 1.109203753630785610e-03
9.982000000000000313e-06 9.311815711689977113e-03 8.879881089227186733e-06 1.271216815433141075e-03
1.256999999999999993e-05 1.172874412604260098e-02 1.207676739913533738e-05 1.374195438212825332e-03
1.521999999999999997e-05 1.420427250933824909e-02 1.547541302213394990e-05 1.371610497379100249e-03
1.991000000000000080e-05 1.858690797761085312e-02 2.160710455847765458e-05 1.426578142835871997e-03
2.506999999999999883e-05 2.341050104039446925e-02 2.908031724375689851e-05 1.672007475975408053e-03
2.790999999999999875e-05 2.606604784714952258e-02 3.357009132255487721e-05 1.709425557744154774e-03
3.806999999999999973e-05 3.556967988784798945e-02 4.986781576435106434e-05 1.720407281314112165e-03
5.063000000000000145e-05 4.732434580343149871e-02 7.073400252905581275e-05 1.829889149838781265e-03
6.592000000000000583e-05 6.164112392498975052e-02 9.765037643900635188e-05 1.930242980462695823e-03
8.433000000000000066e-05 7.888776783401378612e-02 1.317235490470395893e-04 2.021055815200022837e-03
1.062000000000000064e-04 9.938561165478684845e-02 1.740088341640037047e-04 2.104789529260958983e-03
1.321000000000000126e-04 1.236720406455826121e-01 2.260189757651373944e-04 2.178291718403657477e-03
1.623999999999999901e-04 1.520974545104751274e-01 2.888169908545388338e-04 2.240170365918073281e-03
1.689999999999999879e-04 1.582907717069566844e-01 3.027354772999506964e-04 2.254509350360745651e-03
1.758999999999999930e-04 1.647661861691531171e-01 3.173785841705756782e-04 2.268169273277113179e-03
1.830000000000000029e-04 1.714298948183871907e-01 3.325196584577469103e-04 2.276170334580628063e-03
1.901999999999999882e-04 1.781880600978280049e-01 3.479577791899843742e-04 2.292561569242367037e-03
1.977000000000000079e-04 1.852284385240466902e-01 3.641242634600037713e-04 2.299943765467868384e-03
2.054000000000000053e-04 1.924572004474696396e-01 3.808304060475003897e-04 2.322187632288155723e-03
2.079000000000000119e-04 1.948043378760714872e-01 3.864137987380476553e-04 2.435429768083530178e-03
2.081999999999999921e-04 1.950859988578999005e-01 3.870314100985603909e-04 1.950065624557156818e-03
2.090999999999999868e-04 1.959309855029948977e-01 3.881261957135444685e-04 6.411875526909013856e-04
2.159999999999999919e-04 2.024093317906446865e-01 3.940874488768042125e-04 1.199166870571831411e-03
2.231000000000000019e-04 2.090756740932291913e-01 4.013938420547467825e-04 9.928616047829054436e-04
2.311000000000000066e-04 2.165873044433437034e-01 4.085241694843774404e-04 9.056166966301716637e-04
2.401000000000000085e-04 2.250381721984245909e-01 4.159700687886608468e-04 8.565463878902855599e-04
2.500000000000000052e-04 2.343344406330727658e-01 4.237602369176299592e-04 8.194318812157330018e-04
2.642999999999999733e-04 2.477629128650125634e-01 4.345596643180389446e-04 7.890063723638815647e-04
3.052999999999999941e-04 2.862671839140227270e-01 4.644058706720978241e-04 7.612775562167708662e-04
3.533000000000000224e-04 3.313503829113090826e-01 4.987577676308450197e-04 7.626578558207241024e-04
4.075999999999999871e-04 3.823564017794535141e-01 5.381334366106255759e-04 7.813048116943254948e-04
4.679999999999999915e-04 4.390986251953180042e-01 5.832692638200615834e-04 8.096035963157804938e-04
5.341000000000000261e-04 5.012024644415256081e-01 6.346556894078133086e-04 8.452514814113673558e-04
6.059000000000000366e-04 5.686690698184251325e-01 6.930641302632923034e-04 8.862253587289389486e-04
7.661000000000000275e-04 7.192254882508629654e-01 8.328184776562496576e-04 9.702780530519144065e-04
1.262000000000000101e-03 1.185459127778160093e+00 1.338484980802662205e-03 1.198863597978450275e-03
1.894999999999999983e-03 1.780909071169781921e+00 2.123481960401060308e-03 1.437771491635827115e-03
2.673000000000000029e-03 2.513147344746868850e+00 3.261860252001994032e-03 1.671524566936786766e-03
3.605999999999999830e-03 3.391736073717691369e+00 4.828136641022434151e-03 1.893900408978071038e-03
4.709999999999999777e-03 4.431905410739045870e+00 6.903512974832482635e-03 2.096551352830673849e-03
7.496000000000000059e-03 7.058993649504918366e+00 1.289742191321638018e-02 2.466596387205546859e-03
1.119999999999999989e-02 1.055540362104863661e+01 2.212077014004794340e-02 2.809304433764861584e-03
1.600000000000000033e-02 1.509117352747679952e+01 3.559566804390756900e-02 3.132325055719984222e-03
2.206999999999999934e-02 2.083310616724802244e+01 5.457322122755020599e-02 3.477840948757840792e-03
2.947999999999999926e-02 2.785007348564149154e+01 8.049103664263126956e-02 3.909302116317729670e-03
4.268000000000000266e-02 4.036707211535221518e+01 1.353887601042819133e-01 4.862066536253286525e-03
6.219999999999999835e-02 5.891246509830522626e+01 2.419691225623893105e-01 6.630786177272363080e-03
7.316999999999999893e-02 6.935151695866235855e+01 3.161896974764099033e-01 7.588671314871411888e-03
7.595999999999999974e-02 7.200836722020332559e+01 3.371250777904805096e-01 8.170805199905812125e-03
7.685877551020407761e-02 7.286441682184093338e+01 3.442098467598504463e-01 8.381425435875276483e-03
7.775755102040816935e-02 7.372055034543298291e+01 3.514786830934178985e-01 8.599179081599701152e-03
7.865632653061224722e-02 7.457676898329280846e+01 3.589376169709127540e-01 8.823776709550371772e-03
7.955510204081632508e-02 7.543307396799916376e+01 3.665924336691860352e-01 9.054928892198582657e-03
8.045387755102040295e-02 7.628946656826433070e+01 3.744486735107010467e-01 9.292346202015615980e-03
8.135265306122449469e-02 7.714594808498581813e+01 3.825116318078083388e-01 9.535739211472767790e-03
8.225142857142857256e-02 7.800251984747231404e+01 3.907863588023820500e-01 9.784818493041313320e-03
8.315020408163265042e-02 7.885918320983371643e+01 3.992776596004495304e-01 1.003929461919255209e-02
8.404897959183672829e-02 7.971593954752654554e+01 4.079900941014909521e-01 1.029887816239776800e-02
8.494775510204082003e-02 8.057279025404665163e+01 4.169279769221335141e-01 1.056327969512825538e-02
8.584653061224489790e-02 8.142973673776052124e+01 4.260953773140050971e-01 1.083220978985529118e-02
8.674530612244897576e-02 8.228678041886875860e+01 4.354961190755533562e-01 1.110537901905016799e-02
8.764408163265305363e-02 8.314392272649450888e+01 4.451337804576685486e-01 1.138249795518418012e-02
8.854285714285714537e-02 8.400116509589031466e+01 4.550116940629875817e-01 1.166327717072861148e-02
8.944163265306122323e-02 8.485850896575681190e+01 4.651329467387836369e-01 1.194742723815474771e-02
9.034040816326530110e-02 8.571595577566915836e+01 4.755003794633814729e-01 1.223465872993387618e-02
9.123918367346939284e-02 8.657350696360342113e+01 4.861165872260588272e-01 1.252468221853729469e-02
9.213795918367347071e-02 8.743116396356057862e+01 4.969839189004268687e-01 1.281720827643628019e-02
9.303673469387754857e-02 8.828892820328070457e+01 5.081044771113061298e-01 1.311194747610212701e-02
9.393551020408162644e-02 8.914680110204510299e+01 5.194801180951327257e-01 1.340861039000612077e-02
9.483428571428570431e-02 9.000478406856068148e+01 5.311124515539581425e-01 1.370690759061955061e-02
9.573306122448979605e-02 9.086287849892349300e+01 5.430028405031209759e-01 1.400654965041370908e-02
9.663183673469387391e-02 9.172108577465667167e+01 5.551524011126901526e-01 1.430724714185987664e-02
9.753061224489795178e-02 9.257940726082082961e+01 5.675620025427996485e-01 1.460871063742934239e-02
9.842938775510204352e-02 9.343784430419158582e+01 5.802322667730055450e-01 1.491065070959340759e-02
9.932816326530612139e-02 9.429639823150270672e+01 5.931635684258180774e-01 1.521277793082333879e-02
1.002269387755101993e-01 9.515507034775097850e+01 6.063560345845764310e-01 1.551480287359043898e-02
1.011257142857142910e-01 9.601386193456033880e+01 6.198095446058420332e-01 1.581643611036600422e-02
1.020244897959183689e-01 9.687277424860225494e+01 6.335237299265077393e-01 1.611738821362129412e-02
1.029232653061224467e-01 9.773180852007023134e+01 6.474979738658293016e-01 1.641736975582762034e-02
1.038220408163265246e-01 9.859096595120595907e+01 6.617314114225953947e-01 1.671609130945626506e-02
1.047208163265306025e-01 9.945024771487463511e+01 6.762229290676694538e-01 1.701326344697851392e-02
1.056195918367346942e-01 1.003096549531868931e+02 6.909711645321431339e-01 1.730859674086566644e-02
1.065183673469387721e-01 1.011691887761668625e+02 7.059745065913525242e-01 1.760180176358899437e-02
1.074171428571428499e-01 1.020288502604623204e+02 7.212310948450216808e-01 1.789258908761979378e-02
1.083159183673469417e-01 1.028886404480968366e+02 7.367388194938003787e-01 1.818066928542935376e-02
1.092146938775510195e-01 1.037485603452611400e+02 7.524953211124781882e-01 1.846575292948895997e-02
1.101134693877550974e-01 1.046086109211424713e+02 7.684979904201650891e-01 1.874755059226990150e-02
1.110122448979591891e-01 1.054687931067904287e+02 7.847439680477314994e-01 1.902577284624347095e-02
1.119110204081632531e-01 1.063291077940170481e+02 8.012301443028133630e-01 1.930013026388095049e-02
1.128097959183673449e-01 1.071895558343315429e+02 8.179531589326989316e-01 1.957033341765362922e-02
1.137085714285714227e-01 1.080501380379054694e+02 8.349094008854046622e-01 1.983609288003279972e-02
1.146073469387755006e-01 1.089108551725702370e+02 8.520950080692802908e-01 2.009711922348974417e-02
1.155061224489795924e-01 1.097717079628431662e+02 8.695058671114630489e-01 2.035312302049575167e-02
1.164048979591836702e-01 1.106326970889824253e+02 8.871376131155248590e-01 2.060381484352211481e-02
1.173036734693877481e-01 1.114938231860693776e+02 9.049856294186582328e-01 2.084890526504012270e-02
1.182024489795918398e-01 1.123550868431163963e+02 9.230450473487459284e-01 2.108810485752105751e-02
1.191012244897959177e-01 1.132164886022013377e+02 9.413107459816717482e-01 2.132112419343620488e-02
1.199999999999999956e-01 1.140780289576250510e+02 9.597773518992366304e-01 2.154767384525686780e-02
1.226393738358467905e-01 1.166088644858575520e+02 1.015124240678782375e+00 2.219024449436601820e-02
1.252787476716935855e-01 1.191409091562906610e+02 1.072148164917217317e+00 2.285143125158211469e-02
1.279181215075403666e-01 1.216741733535849050e+02 1.130899450702259834e+00 2.353229914788433283e-02
1.305574953433871754e-01 1.242086681017699590e+02 1.191431298675557748e+00 2.423396763860443531e-02
1.331968691792339565e-01 1.267444050850602366e+02 1.253799931534719025e+00 2.495761103508373560e-02
1.358362430150807654e-01 1.292813966699624757e+02 1.318064743287064022e+00 2.570445889507496501e-02
1.384756168509275465e-01 1.318196559285795786e+02 1.384288450189324671e+00 2.647579637214543188e-02
1.411149906867743553e-01 1.343591966630317529e+02 1.452537243310108250e+00 2.727296452398010954e-02
1.437543645226211364e-01 1.369000334309166362e+02 1.522880942653721759e+00 2.809736057915976359e-02
1.463937383584679175e-01 1.394421815717445838e+02 1.595393152785189450e+00 2.895043816170395079e-02
1.490331121943147263e-01 1.419856572342846732e+02 1.670151419896885869e+00 2.983370747241014323e-02
1.516724860301615352e-01 1.445304774047671970e+02 1.747237390257367018e+00 3.074873542578574620e-02
1.543118598660083163e-01 1.470766599358921098e+02 1.826736969982681869e+00 3.169714574115826966e-02
1.569512337018550974e-01 1.496242235765953126e+02 1.908740486069741005e+00 3.268061898635410412e-02
1.595906075377019062e-01 1.521731880025301109e+02 1.993342848630277775e+00 3.370089257215948958e-02
1.622299813735486873e-01 1.547235738472249693e+02 2.080643714262581323e+00 3.475976069561424742e-02
1.648693552093954962e-01 1.572754027338786784e+02 2.170747650496540171e+00 3.585907423003903416e-02
1.675087290452422772e-01 1.598286973077601090e+02 2.263764301245593913e+00 3.700074055955882707e-02
1.701481028810890583e-01 1.623834812691798959e+02 2.359808553197089598e+00 3.818672335575987870e-02
1.727874767169358672e-01 1.649397794070028169e+02 2.459000703070130633e+00 3.941904229400046422e-02
1.754268505527826760e-01 1.674976176326725295e+02 2.561466625667461194e+00 4.069977270678964976e-02
1.780662243886294571e-01 1.700570230147231143e+02 2.667337942645179538e+00 4.203104517155353131e-02
1.807055982244762382e-01 1.726180238137481240e+02 2.776752191921136426e+00 4.341504503001984011e-02
1.833449720603230471e-01 1.751806495178059322e+02 2.889852997639791088e+00 4.485401183637612033e-02
1.859843458961698559e-01 1.777449308782342712e+02 3.006790240608075759e+00 4.635023873128844146e-02
1.886237197320166370e-01 1.803108999458532367e+02 3.127720229113453598e+00 4.790607173880945258e-02
1.912630935678634181e-01 1.828785901075333697e+02 3.252805870031845625e+00 4.952390898315715134e-02
1.939024674037101992e-01 1.854480361231055952e+02 3.382216840129489199e+00 5.120619982230720929e-02
1.965418412395570080e-01 1.880192741625952522e+02 3.516129757459085070e+00 5.295544389531455648e-02
1.991812150754038169e-01 1.905923418437545536e+02 3.654728352746738018e+00 5.477419008026274821e-02
2.018205889112505980e-01 1.931672782698759931e+02 3.798203640662303204e+00 5.666503535973561184e-02
2.044599627470973791e-01 1.957441240678651582e+02 3.946754090861726905e+00 5.863062359071030683e-02
2.070993365829441879e-01 1.983229214265527105e+02 4.100585798685882466e+00 6.067364417579112351e-02
2.097387104187909967e-01 2.009037141352231401e+02 4.259912655396264292e+00 6.279683063273375221e-02
2.123780842546377778e-01 2.034865476223437497e+02 4.424956517823675384e+00 6.500295905925498885e-02
2.150174580904845589e-01 2.060714689944704787e+02 4.595947377301765613e+00 6.729484649018155351e-02
2.176568319263313678e-01 2.086585270753103600e+02 4.773123527752940021e+00 6.967534914406342539e-02
2.202962057621781489e-01 2.112477724449211678e+02 4.956731732789805278e+00 7.214736055646690793e-02
2.229355795980249577e-01 2.138392574790269407e+02 5.147027391690932596e+00 7.471380959726502125e-02
2.255749534338717388e-01 2.164330363884269843e+02 5.344274704105218099e+00 7.737765836936172370e-02
2.282143272697185199e-01 2.190291652584801341e+02 5.548746833334773143e+00 8.014189998642502755e-02
2.308537011055653287e-01 2.216277020886386993e+02 5.760726068041702952e+00 8.300955622735532724e-02
2.334930749414121376e-01 2.242287068320139269e+02 5.980503982219745218e+00 8.598367506538687199e-02
2.361324487772589187e-01 2.268322414349482017e+02 6.208381593267249698e+00 8.906732806991217444e-02
2.387718226131056998e-01 2.294383698765728639e+02 6.444669517993528274e+00 9.226360767932409446e-02
2.414111964489525086e-01 2.320471582083281987e+02 6.689688126386160505e+00 9.557562434339944568e-02
2.440505702847993175e-01 2.346586745934214662e+02 6.943767692962476978e+00 9.900650353399606529e-02
2.466899441206460986e-01 2.372729893462004895e+02 7.207248545524070238e+00 1.025593826230997846e-01
2.493293179564928796e-01 2.398901749714187872e+02 7.480481211128882535e+00 1.062374076275474644e-01
3.258736175900338594e-01 3.183402711261500144e+02 2.933795505670975601e+01 4.364971083703976240e-01
4.024179172235747837e-01 4.040414456903652649e+02 6.644321351992977043e+01 4.309194098951492080e-01
4.789622168571157079e-01 4.970877929726083835e+02 1.062302811413224646e+02 4.253417114199007920e-01
5.555065164906567432e-01 5.966944422589506303e+02 1.482802701826995246e+02 4.197640129446523760e-01
6.320508161241975564e-01 7.022426974610266370e+02 1.922590247278268407e+02 4.141863144694040155e-01
7.085951157577385917e-01 8.132276865684425502e+02 2.378907234024180184e+02 4.086086159941555995e-01
7.851394153912796270e-01 9.291848721528674560e+02 2.836136241287393318e+02 3.810175984408264993e-01
8.616837150248204402e-01 1.049448228229804272e+03 3.250651460640428354e+02 3.100137544572666437e-01
9.382280146583614755e-01 1.173060948401304813e+03 3.589278110553237298e+02 2.390099104737065383e-01
1.014772314291902289e+00 1.299218832228797737e+03 3.882667032142953190e+02 2.262993601628652818e-01
1.091316613925443324e+00 1.427625717085942142e+03 4.191675811351549328e+02 2.547364461055636187e-01
1.167860913558984359e+00 1.558345911947973946e+03 4.543435716533183495e+02 2.831735320482619556e-01
1.244405213192525173e+00 1.691513568617275268e+03 4.939661615569393689e+02 3.116106179909601814e-01
1.320949512826066208e+00 1.827257154294401289e+03 5.382164414213364125e+02 3.400477039336585183e-01
1.397493812459607021e+00 1.965700997153588332e+03 5.872850044040208104e+02 3.684847898763567442e-01
1.474038112093148056e+00 2.106966489136559176e+03 6.413719343065674821e+02 3.969218758190550811e-01
1.550582411726689092e+00 2.251173039384147160e+03 7.006868625918425550e+02 4.253589617617534180e-01
1.627126711360229905e+00 2.398438843101328075e+03 7.654490801457318412e+02 4.537960477044516439e-01
1.703671010993770940e+00 2.548881511729205158e+03 8.358876936670892519e+02 4.822331336471499252e-01
1.780215310627311753e+00 2.702618597502570083e+03 9.122418193812820846e+02 5.106702195898482621e-01
1.856759610260852789e+00 2.859768036642759398e+03 9.947608087435116886e+02 5.391073055325464880e-01
1.933303909894393824e+00 3.020448529231486646e+03 1.083704502205535391e+03 5.675443914752448249e-01
2.009848209527934859e+00 3.184779869379373395e+03 1.179343508141974326e+03 5.959814774179431618e-01
2.086392509161475672e+00 3.352886007892639100e+03 1.282354885419343873e+03 6.290149629769190565e-01
