# density  energy_density  pressure   sound_speed_squared  [All in nuclear units]
2.720000000000000022e-14 2.529924618736292620e-11 1.061056609100270887e-19 3.766610435412189122e-08
1.269999999999999890e-13 1.181251617980081254e-10 4.870113551826584858e-18 6.497781477172163475e-08
6.929999999999999754e-13 6.445728594625782745e-10 1.018299070687946017e-16 3.033770597342807186e-07
6.295000000000000137e-12 5.855111460395753757e-09 5.487150723824490656e-15 1.763710043904196507e-06
1.581000000000000150e-11 1.470523320212576141e-08 2.904239460150760759e-14 3.559434472327477622e-06
3.971999999999999958e-11 3.694456170323160790e-08 1.439340266754906811e-13 6.772854871245677111e-06
9.975999999999999982e-11 9.278976412613005154e-08 6.812143616221268841e-13 1.246890511177539320e-05
2.505999999999999928e-10 2.330928829758143313e-07 3.107749196951638608e-12 2.212095130576091967e-05
6.294000000000000186e-10 5.854398883216247602e-07 1.363250409771533549e-11 3.761981047239428883e-05
1.581000000000000021e-09 1.470619631082054101e-06 5.726014178088476303e-11 6.095350986710739404e-05
3.971999999999999932e-09 3.694861084648016046e-06 2.210019573374265380e-10 8.628023653304385055e-05
5.000000000000000105e-09 4.651201787816927976e-06 3.071485916280120014e-10 9.387863480799757518e-05
9.975999999999999465e-09 9.280587964640925786e-06 8.385361004129998845e-10 1.356922228656245837e-04
1.989999999999999952e-08 1.851419242998081003e-05 2.287763168863418088e-09 1.782101978513718314e-04
3.972999999999999908e-08 3.696699295748789187e-05 6.061583099087538954e-09 2.308134738384234820e-04
7.925999999999999637e-08 7.375765469301719828e-05 1.575347858094044765e-08 2.960532096713864875e-04
1.580999999999999930e-07 1.471491184379128891e-04 3.910429618672550719e-08 3.402859755131850544e-04
1.991000000000000027e-07 1.853209783927820692e-04 5.252045687899177454e-08 3.626488188833278743e-04
3.155999999999999938e-07 2.938002528823880299e-04 9.730770378831954314e-08 4.630767356912104081e-04
5.000999999999999849e-07 4.656344063839075714e-04 1.837494945860225819e-07 5.430301232045120323e-04
6.295999999999999732e-07 5.862651417037388971e-04 2.503103884558263872e-07 5.605192962670089638e-04
9.666999999999999941e-07 9.003386739730535665e-04 4.324450868778576936e-07 5.993081670211623108e-04
1.531999999999999901e-06 1.427170885631398036e-03 7.780217275717420968e-07 7.125938556504039095e-04
2.506999999999999883e-06 2.336134972129507662e-03 1.471005394641589826e-06 8.121876172121876309e-04
3.974000000000000407e-06 3.704315759716615697e-03 2.695705763844323844e-06 9.780674166779417152e-04
4.830000000000000343e-06 4.502887798316278223e-03 3.503988717694660908e-06 1.046253037768318664e-03
6.080999999999999885e-06 5.670217999231269741e-03 4.731126407333307547e-06 1.056224360839501646e-03
7.930000000000000308e-06 7.396012414119570652e-03 6.599662989063778187e-06 1.109203753630785610e-03
9.982000000000000313e-06 9.311815711689977113e-03 8.879881089227186733e-06 1.271216815433141075e-03
1.256999999999999993e-05 1.172874412604260098e-02 1.207676739913533738e-05 1.374195438212825332e-03
1.521999999999999997e-05 1.420427250933824909e-02 1.547541302213394990e-05 1.371610497379100249e-03
1.991000000000000080e-05 1.858690797761085312e-02 2.160710455847765458e-05 1.426578142835871997e-03
2.506999999999999883e-05 2.341050104039446925e-02 2.908031724375689851e-05 1.672007475975408053e-03
2.790999999999999875e-05 2.606604784714952258e-02 3.357009132255487721e-05 1.709425557744154774e-03
3.806999999999999973e-05 3.556967988784798945e-02 4.986781576435106434e-05 1.720407281314112165e-03
5.063000000000000145e-05 4.732434580343149871e-02 7.073400252905581275e-05 1.829889149838781265e-03
6.592000000000000583e-05 6.164112392498975052e-02 9.765037643900635188e-05 1.930242980462695823e-03
8.433000000000000066e-05 7.888776783401378612e-02 1.317235490470395893e-04 2.021055815200022837e-03
1.062000000000000064e-04 9.938561165478684845e-02 1.740088341640037047e-04 2.104789529260958983e-03
1.321000000000000126e-04 1.236720406455826121e-01 2.260189757651373944e-04 2.178291718403657477e-03
1.623999999999999901e-04 1.520974545104751274e-01 2.888169908545388338e-04 2.240170365918073281e-03
1.689999999999999879e-04 1.582907717069566844e-01 3.027354772999506964e-04 2.254509350360745651e-03
1.758999999999999930e-04 1.647661861691531171e-01 3.173785841705756782e-04 2.268169273277113179e-03
1.830000000000000029e-04 1.714298948183871907e-01 3.325196584577469103e-04 2.276170334580628063e-03
1.901999999999999882e-04 1.781880600978280049e-01 3.479577791899843742e-04 2.292561569242367037e-03
1.977000000000000079e-04 1.852284385240466902e-01 3.641242634600037713e-04 2.299943765467868384e-03
2.054000000000000053e-04 1.924572004474696396e-01 3.808304060475003897e-04 2.322187632288155723e-03
2.079000000000000119e-04 1.948043378760714872e-01 3.864137987380476553e-04 2.435429768083530178e-03
2.081999999999999921e-04 1.950859988578999005e-01 3.870314100985603909e-04 1.950065624557156818e-03
2.090999999999999868e-04 1.959309855029948977e-01 3.881261957135444685e-04 6.411875526909013856e-04
2.159999999999999919e-04 2.024093317906446865e-01 3.940874488768042125e-04 1.199166870571831411e-03
2.231000000000000019e-04 2.090756740932291913e-01 4.013938420547467825e-04 9.928616047829054436e-04
2.311000000000000066e-04 2.165873044433437034e-01 4.085241694843774404e-04 9.056166966301716637e-04
2.401000000000000085e-04 2.250381721984245909e-01 4.159700687886608468e-04 8.565463878902855599e-04
2.500000000000000052e-04 2.343344406330727658e-01 4.237602369176299592e-04 8.194318812157330018e-04
2.642999999999999733e-04 2.477629128650125634e-01 4.345596643180389446e-04 7.890063723638815647e-04
3.052999999999999941e-04 2.862671839140227270e-01 4.644058706720978241e-04 7.612775562167708662e-04
3.533000000000000224e-04 3.313503829113090826e-01 4.987577676308450197e-04 7.626578558207241024e-04
4.075999999999999871e-04 3.823564017794535141e-01 5.381334366106255759e-04 7.813048116943254948e-04
4.679999999999999915e-04 4.390986251953180042e-01 5.832692638200615834e-04 8.096035963157804938e-04
5.341000000000000261e-04 5.012024644415256081e-01 6.346556894078133086e-04 8.452514814113673558e-04
6.059000000000000366e-04 5.686690698184251325e-01 6.930641302632923034e-04 8.862253587289389486e-04
7.661000000000000275e-04 7.192254882508629654e-01 8.328184776562496576e-04 9.702780530519144065e-04
1.262000000000000101e-03 1.185459127778160093e+00 1.338484980802662205e-03 1.198863597978450275e-03
1.894999999999999983e-03 1.780909071169781921e+00 2.123481960401060308e-03 1.437771491635827115e-03
2.673000000000000029e-03 2.513147344746868850e+00 3.261860252001994032e-03 1.671524566936786766e-03
3.605999999999999830e-03 3.391736073717691369e+00 4.828136641022434151e-03 1.893900408978071038e-03
4.709999999999999777e-03 4.431905410739045870e+00 6.903512974832482635e-03 2.096551352830673849e-03
7.496000000000000059e-03 7.058993649504918366e+00 1.289742191321638018e-02 2.466596387205546859e-03
1.119999999999999989e-02 1.055540362104863661e+01 2.212077014004794340e-02 2.809304433764861584e-03
1.600000000000000033e-02 1.509117352747679952e+01 3.559566804390756900e-02 3.132325055719984222e-03
2.206999999999999934e-02 2.083310616724802244e+01 5.457322122755020599e-02 3.477840948757840792e-03
2.947999999999999926e-02 2.785007348564149154e+01 8.049103664263126956e-02 3.909302116317729670e-03
4.268000000000000266e-02 4.036707211535221518e+01 1.353887601042819133e-01 4.862066536253286525e-03
6.219999999999999835e-02 5.891246509830522626e+01 2.419691225623893105e-01 6.630786177272363080e-03
7.316999999999999893e-02 6.935151695866235855e+01 3.161896974764099033e-01 7.588671314871411888e-03
7.595999999999999974e-02 7.200836722020332559e+01 3.371250777904805096e-01 8.170805199905810390e-03
7.685877551020407761e-02 7.286441678732110461e+01 3.442039392318512192e-01 8.367624949813873975e-03
7.775755102040816935e-02 7.372055011634041932e+01 3.514512134968942325e-01 8.562613760210986344e-03
7.865632653061224722e-02 7.457676817729796426e+01 3.588654309702182243e-01 8.755904418464605099e-03
7.955510204081632508e-02 7.543307190191201528e+01 3.664452355202512668e-01 8.947629711942203454e-03
8.045387755102040295e-02 7.628946218616410135e+01 3.741893845290531484e-01 9.137922428011240744e-03
8.135265306122449469e-02 7.714593989276495734e+01 3.820967489253265792e-01 9.326915354039188449e-03
8.225142857142857256e-02 7.800250585351213317e+01 3.901663132204076234e-01 9.514741277393505905e-03
8.315020408163265042e-02 7.885916087154470233e+01 3.983971755470360754e-01 9.701532985441655918e-03
8.404897959183672829e-02 7.971590572350157800e+01 4.067885477007207595e-01 9.887423265551113435e-03
8.494775510204082003e-02 8.057274116158704658e+01 4.153397551835353863e-01 1.007254490508933953e-02
8.584653061224489790e-02 8.142966791554999872e+01 4.240502372501922523e-01 1.025703069142379180e-02
8.674530612244897576e-02 8.228668669458050999e+01 4.329195469562589493e-01 1.044101341192193999e-02
8.764408163265305363e-02 8.314379818912844655e+01 4.419473512083919586e-01 1.062462585395125558e-02
8.854285714285714537e-02 8.400100307264780497e+01 4.511334308164780538e-01 1.080800080487919965e-02
8.944163265306122323e-02 8.485830200327086459e+01 4.604776805475820911e-01 1.099127105207323152e-02
9.034040816326530110e-02 8.571569562541570519e+01 4.699801091816149246e-01 1.117456938290082268e-02
9.123918367346939284e-02 8.657318457133023060e+01 4.796408395686399539e-01 1.135802858472943766e-02
9.213795918367347071e-02 8.743076946257552606e+01 4.894601086877502505e-01 1.154178144492653754e-02
9.303673469387754857e-02 8.828845091145289814e+01 4.994382677074575838e-01 1.172596075085959033e-02
9.393551020408162644e-02 8.914622952237503739e+01 5.095757820475385058e-01 1.191069928989606404e-02
9.483428571428570431e-02 9.000410589318663312e+01 5.198732314422956913e-01 1.209612984940341800e-02
9.573306122448979605e-02 9.086208061643432643e+01 5.303313100051968432e-01 1.228238521674912369e-02
9.663183673469387391e-02 9.172015428059070530e+01 5.409508262948604651e-01 1.246959817930064392e-02
9.753061224489795178e-02 9.257832747123221395e+01 5.517327033823681282e-01 1.265790152442543628e-02
9.842938775510204352e-02 9.343660077217543858e+01 5.626779789198824711e-01 1.284742803949097574e-02
9.932816326530612139e-02 9.429497476657157051e+01 5.737878052105606086e-01 1.303831051186472162e-02
1.002269387755101993e-01 9.515345003796231538e+01 5.850634492797593955e-01 1.323068172891414193e-02
1.011257142857142910e-01 9.601202717129883979e+01 5.965062929475275499e-01 1.342467447800670816e-02
1.020244897959183689e-01 9.687070675392419616e+01 6.081178329023911866e-01 1.362042154650986922e-02
1.029232653061224467e-01 9.772948937652326151e+01 6.198996807764416417e-01 1.381805572179110181e-02
1.038220408163265246e-01 9.858837563403857018e+01 6.318535632217361364e-01 1.401770979121786873e-02
1.047208163265306025e-01 9.944736612655607644e+01 6.439813219880305972e-01 1.421951654215763625e-02
1.056195918367346942e-01 1.003064614601610600e+02 6.562849140018639504e-01 1.442360876197786718e-02
1.065183673469387721e-01 1.011656622477652974e+02 6.687664114470180943e-01 1.463011923804602432e-02
1.074171428571428499e-01 1.020249691099072891e+02 6.814280018463841904e-01 1.483918075772958090e-02
1.083159183673469417e-01 1.028843826755260693e+02 6.942719881452623643e-01 1.505092610839599623e-02
1.092146938775510195e-01 1.037439035827103453e+02 7.073007887961317852e-01 1.526548807741273314e-02
1.101134693877550974e-01 1.046035324794236203e+02 7.205169378449294282e-01 1.548299945214726137e-02
1.110122448979591891e-01 1.054632700242059968e+02 7.339230850188744881e-01 1.570359301996705065e-02
1.119110204081632531e-01 1.063231168868544643e+02 7.475219958158823008e-01 1.592740156823954992e-02
1.128097959183673449e-01 1.071830737490819700e+02 7.613165515956177298e-01 1.615455788433224280e-02
1.137085714285714227e-01 1.080431413051557143e+02 7.753097496722261006e-01 1.638519475561258168e-02
1.146073469387755006e-01 1.089033202625167576e+02 7.895047034088027438e-01 1.661944496944803631e-02
1.155061224489795924e-01 1.097636113423801021e+02 8.039046423136457786e-01 1.685744131320607644e-02
1.164048979591836702e-01 1.106240152803178631e+02 8.185129121383485362e-01 1.709931657425415447e-02
1.173036734693877481e-01 1.114845328268242213e+02 8.333329749777912410e-01 1.734520353995974706e-02
1.182024489795918398e-01 1.123451647478645299e+02 8.483684093720855746e-01 1.759523499769031704e-02
1.191012244897959177e-01 1.132059118254076253e+02 8.636229104105341836e-01 1.784954373481332721e-02
1.199999999999999956e-01 1.140667748579446084e+02 8.791002898376698571e-01 1.810826253869623689e-02
1.224829451114223533e-01 1.164455954096887780e+02 9.230480500718616366e-01 1.884082190611785848e-02
1.249658902228447249e-01 1.188253247231390617e+02 9.687648175835739117e-01 1.958087900794806824e-02
1.274488353342670965e-01 1.212059800803803427e+02 1.016269612125835220e+00 2.032800314944761128e-02
1.299317804456894543e-01 1.235875784514322504e+02 1.065580504997668987e+00 2.108178460228601545e-02
1.324147255571118120e-01 1.259701364944677522e+02 1.116714666772814279e+00 2.184183424703117424e-02
1.348976706685341698e-01 1.283536705569017613e+02 1.169688414154794520e+00 2.260778317226895887e-02
1.373806157799565275e-01 1.307381966772547628e+02 1.224517255863285969e+00 2.337928223136000877e-02
1.398635608913789130e-01 1.331237305877000097e+02 1.281215937458130005e+00 2.415600155772847785e-02
1.423465060028012708e-01 1.355102877172164995e+02 1.339798485008470319e+00 2.493763003948065368e-02
1.448294511142236285e-01 1.378978831952730104e+02 1.400278247515422292e+00 2.572387475406332294e-02
1.473123962256459862e-01 1.402865318559753121e+02 1.462667937997383261e+00 2.651446036359295794e-02
1.497953413370683717e-01 1.426762482426145766e+02 1.526979673147659033e+00 2.730912847142043243e-02
1.522782864484907295e-01 1.450670466125587268e+02 1.593225011474462605e+00 2.810763694043340311e-02
1.547612315599130872e-01 1.474589409424346513e+02 1.661414989833629230e+00 2.890975917354641697e-02
1.572441766713354450e-01 1.498519449335493903e+02 1.731560158264518368e+00 2.971528335678171734e-02
1.597271217827578305e-01 1.522460720175058384e+02 1.803670613039662030e+00 3.052401166530425633e-02
1.622100668941801882e-01 1.546413353619680606e+02 1.877756027838672459e+00 3.133575943274007070e-02
1.646930120056025459e-01 1.570377478765367130e+02 1.953825682956867205e+00 3.215035428408000856e-02
1.671759571170249037e-01 1.594353222186937842e+02 2.031888492458895357e+00 3.296763523244788940e-02
1.696589022284472614e-01 1.618340707997829213e+02 2.111953029187515707e+00 3.378745173999694873e-02
1.721418473398696469e-01 1.642340057909891868e+02 2.194027547537459544e+00 3.460966274318709457e-02
1.746247924512920047e-01 1.666351391292846813e+02 2.278120003904113400e+00 3.543413564269203703e-02
1.771077375627143624e-01 1.690374825233113825e+02 2.364238074716582982e+00 3.626074525818671207e-02
1.795906826741367202e-01 1.714410474591674642e+02 2.452389171964491688e+00 3.708937274827347336e-02
1.820736277855590779e-01 1.738458452060729940e+02 2.542580456127768507e+00 3.791990449582167272e-02
1.845565728969814634e-01 1.762518868218816124e+02 2.634818846418581550e+00 3.875223095901586534e-02
1.870395180084038211e-01 1.786591831584173349e+02 2.729111028244570747e+00 3.958624548843921870e-02
1.895224631198261789e-01 1.810677448666074554e+02 2.825463457802635858e+00 4.042184311055588980e-02
1.920054082312485644e-01 1.834775824013863996e+02 2.923882363712704269e+00 4.125891927800298675e-02
1.944883533426708944e-01 1.858887060263483590e+02 3.024373745601262264e+00 4.209736858715905361e-02
1.969712984540932799e-01 1.883011258181243193e+02 3.126943369544936679e+00 4.293708346352231170e-02
1.994542435655156376e-01 1.907148516704604333e+02 3.231596760285036840e+00 4.377795281550896783e-02
2.019371886769379953e-01 1.931298932979758831e+02 3.338339190124951728e+00 4.461986065737175156e-02
2.044201337883603808e-01 1.955462602395786291e+02 3.447175664423342667e+00 4.546268470204003348e-02
2.069030788997827108e-01 1.979639618615178733e+02 3.558110903597550667e+00 4.630629492479970688e-02
2.093860240112050963e-01 2.003830073600526589e+02 3.671149321553373035e+00 4.715055209886284682e-02
2.118689691226274541e-01 2.028034057637166541e+02 3.786295000459396931e+00 4.799530630402299575e-02
2.143519142340498118e-01 2.052251659351597937e+02 3.903551661786673233e+00 4.884039540976064381e-02
2.168348593454721973e-01 2.076482965725456893e+02 4.022922633537363346e+00 4.968564353434643671e-02
2.193178044568945551e-01 2.100728062104892331e+02 4.144410813589495923e+00 5.053085948169709629e-02
2.218007495683169128e-01 2.124987032205143009e+02 4.268018629088989435e+00 5.137583515796894512e-02
2.242836946797392705e-01 2.149259958110124842e+02 4.393747991824680454e+00 5.222034397012726564e-02
2.267666397911616283e-01 2.173546920266890936e+02 4.521600249527486071e+00 5.306413920901257436e-02
2.292495849025840138e-01 2.197847997474764554e+02 4.651576133040891570e+00 5.390695241973484514e-02
2.317325300140063715e-01 2.222163266868999187e+02 4.783675699316895624e+00 5.474849176257048228e-02
2.342154751254287293e-01 2.246492803898807153e+02 4.917898270199474453e+00 5.558844036791284887e-02
2.366984202368511148e-01 2.270836682299607503e+02 5.054242366966472666e+00 5.642645468924354507e-02
2.391813653482734447e-01 2.295194974059342883e+02 5.192705640610936868e+00 5.726216285854469901e-02
2.416643104596958302e-01 2.319567749378743997e+02 5.333284797854219050e+00 5.809516304907348661e-02
3.183650388176612056e-01 3.092953507140547345e+02 2.223574732380784624e+01 3.684567683331143040e-01
3.950657671756265810e-01 3.926955198831191183e+02 5.465361702484042894e+01 4.076631057852469486e-01
4.717664955335920118e-01 4.829826070631074231e+02 9.329063320761412115e+01 4.468694432373795933e-01
5.484672238915573317e-01 5.800846798508739539e+02 1.386528933307797047e+02 4.860757806895121824e-01
6.251679522495228181e-01 6.838444948151360450e+02 1.860730112146162583e+02 4.308464923678162473e-01
7.018686806074881934e-01 7.929979883231003441e+02 2.241009104651400321e+02 2.705563245789464055e-01
7.785694089654535688e-01 9.055196701104413251e+02 2.488589102281206635e+02 1.709746832500562141e-01
8.552701373234189441e-01 1.020206503506477020e+03 2.691883511197019629e+02 1.834685433369526719e-01
9.319708656813843195e-01 1.136796512955341768e+03 2.913118525893094670e+02 1.959624034238491574e-01
1.008671594039349806e+00 1.255282527213370486e+03 3.152755237938716277e+02 2.084562635107456430e-01
1.085372322397315070e+00 1.375662013127896444e+03 3.411262012353579962e+02 2.209501235976421007e-01
1.162073050755280557e+00 1.497936140860784235e+03 3.689114680283407210e+02 2.334439836845386140e-01
1.238773779113246043e+00 1.622109098287085317e+03 3.986796745673732403e+02 2.459378437714350996e-01
1.315474507471211307e+00 1.748187577127843042e+03 4.304799597107524392e+02 2.584317038583315296e-01
1.392175235829176572e+00 1.876180380563708013e+03 4.643622720364912766e+02 2.709255639452279874e-01
1.468875964187142058e+00 2.006098118742496354e+03 5.003773909587530966e+02 2.834194240321245006e-01
1.545576692545107544e+00 2.137952969149602268e+03 5.385769476173487647e+02 2.959132841190209584e-01
1.622277420903072809e+00 2.271758485688909786e+03 5.790134455193021950e+02 3.084071442059174162e-01
1.698978149261038295e+00 2.407529444917899582e+03 6.217402809462324740e+02 3.209010042928139850e-01
1.775678877619003559e+00 2.545281721020805435e+03 6.668117631585496383e+02 3.333948643797104427e-01
1.852379605976969046e+00 2.685032183291897127e+03 7.142831344350262270e+02 3.458887244666069005e-01
1.929080334334934310e+00 2.826798611453501053e+03 7.642105899885314102e+02 3.583825845535033583e-01
2.005781062692899575e+00 2.970599625252774786e+03 8.166512977981045651e+02 3.708764446403998161e-01
2.082481791050865283e+00 3.116454625600110376e+03 8.716634183954703303e+02 3.833703047272963294e-01
