# density  energy_density  pressure   sound_speed_squared  [All in nuclear units]
2.720000000000000022e-14 2.529924618736292620e-11 1.061056609100270887e-19 3.766610435412189122e-08
1.269999999999999890e-13 1.181251617980081254e-10 4.870113551826584858e-18 6.497781477172163475e-08
6.929999999999999754e-13 6.445728594625782745e-10 1.018299070687946017e-16 3.033770597342807186e-07
6.295000000000000137e-12 5.855111460395753757e-09 5.487150723824490656e-15 1.763710043904196507e-06
1.581000000000000150e-11 1.470523320212576141e-08 2.904239460150760759e-14 3.559434472327477622e-06
3.971999999999999958e-11 3.694456170323160790e-08 1.439340266754906811e-13 6.772854871245677111e-06
9.975999999999999982e-11 9.278976412613005154e-08 6.812143616221268841e-13 1.246890511177539320e-05
2.505999999999999928e-10 2.330928829758143313e-07 3.107749196951638608e-12 2.212095130576091967e-05
6.294000000000000186e-10 5.854398883216247602e-07 1.363250409771533549e-11 3.761981047239428883e-05
1.581000000000000021e-09 1.470619631082054101e-06 5.726014178088476303e-11 6.095350986710739404e-05
3.971999999999999932e-09 3.694861084648016046e-06 2.210019573374265380e-10 8.628023653304385055e-05
5.000000000000000105e-09 4.651201787816927976e-06 3.071485916280120014e-10 9.387863480799757518e-05
9.975999999999999465e-09 9.280587964640925786e-06 8.385361004129998845e-10 1.356922228656245837e-04
1.989999999999999952e-08 1.851419242998081003e-05 2.287763168863418088e-09 1.782101978513718314e-04
3.972999999999999908e-08 3.696699295748789187e-05 6.061583099087538954e-09 2.308134738384234820e-04
7.925999999999999637e-08 7.375765469301719828e-05 1.575347858094044765e-08 2.960532096713864875e-04
1.580999999999999930e-07 1.471491184379128891e-04 3.910429618672550719e-08 3.402859755131850544e-04
1.991000000000000027e-07 1.853209783927820692e-04 5.252045687899177454e-08 3.626488188833278743e-04
3.155999999999999938e-07 2.938002528823880299e-04 9.730770378831954314e-08 4.630767356912104081e-04
5.000999999999999849e-07 4.656344063839075714e-04 1.837494945860225819e-07 5.430301232045120323e-04
6.295999999999999732e-07 5.862651417037388971e-04 2.503103884558263872e-07 5.605192962670089638e-04
9.666999999999999941e-07 9.003386739730535665e-04 4.324450868778576936e-07 5.993081670211623108e-04
1.531999999999999901e-06 1.427170885631398036e-03 7.780217275717420968e-07 7.125938556504039095e-04
2.506999999999999883e-06 2.336134972129507662e-03 1.471005394641589826e-06 8.121876172121876309e-04
3.974000000000000407e-06 3.704315759716615697e-03 2.695705763844323844e-06 9.780674166779417152e-04
4.830000000000000343e-06 4.502887798316278223e-03 3.503988717694660908e-06 1.046253037768318664e-03
6.080999999999999885e-06 5.670217999231269741e-03 4.731126407333307547e-06 1.056224360839501646e-03
7.930000000000000308e-06 7.396012414119570652e-03 6.599662989063778187e-06 1.109203753630785610e-03
9.982000000000000313e-06 9.311815711689977113e-03 8.879881089227186733e-06 1.271216815433141075e-03
1.256999999999999993e-05 1.172874412604260098e-02 1.207676739913533738e-05 1.374195438212825332e-03
1.521999999999999997e-05 1.420427250933824909e-02 1.547541302213394990e-05 1.371610497379100249e-03
1.991000000000000080e-05 1.858690797761085312e-02 2.160710455847765458e-05 1.426578142835871997e-03
2.506999999999999883e-05 2.341050104039446925e-02 2.908031724375689851e-05 1.672007475975408053e-03
2.790999999999999875e-05 2.606604784714952258e-02 3.357009132255487721e-05 1.709425557744154774e-03
3.806999999999999973e-05 3.556967988784798945e-02 4.986781576435106434e-05 1.720407281314112165e-03
5.063000000000000145e-05 4.732434580343149871e-02 7.073400252905581275e-05 1.829889149838781265e-03
6.592000000000000583e-05 6.164112392498975052e-02 9.765037643900635188e-05 1.930242980462695823e-03
8.433000000000000066e-05 7.888776783401378612e-02 1.317235490470395893e-04 2.021055815200022837e-03
1.062000000000000064e-04 9.938561165478684845e-02 1.740088341640037047e-04 2.104789529260958983e-03
1.321000000000000126e-04 1.236720406455826121e-01 2.260189757651373944e-04 2.178291718403657477e-03
1.623999999999999901e-04 1.520974545104751274e-01 2.888169908545388338e-04 2.240170365918073281e-03
1.689999999999999879e-04 1.582907717069566844e-01 3.027354772999506964e-04 2.254509350360745651e-03
1.758999999999999930e-04 1.647661861691531171e-01 3.173785841705756782e-04 2.268169273277113179e-03
1.830000000000000029e-04 1.714298948183871907e-01 3.325196584577469103e-04 2.276170334580628063e-03
1.901999999999999882e-04 1.781880600978280049e-01 3.479577791899843742e-04 2.292561569242367037e-03
1.977000000000000079e-04 1.852284385240466902e-01 3.641242634600037713e-04 2.299943765467868384e-03
2.054000000000000053e-04 1.924572004474696396e-01 3.808304060475003897e-04 2.322187632288155723e-03
2.079000000000000119e-04 1.948043378760714872e-01 3.864137987380476553e-04 2.435429768083530178e-03
2.081999999999999921e-04 1.950859988578999005e-01 3.870314100985603909e-04 1.950065624557156818e-03
2.090999999999999868e-04 1.959309855029948977e-01 3.881261957135444685e-04 6.411875526909013856e-04
2.159999999999999919e-04 2.024093317906446865e-01 3.940874488768042125e-04 1.199166870571831411e-03
2.231000000000000019e-04 2.090756740932291913e-01 4.013938420547467825e-04 9.928616047829054436e-04
2.311000000000000066e-04 2.165873044433437034e-01 4.085241694843774404e-04 9.056166966301716637e-04
2.401000000000000085e-04 2.250381721984245909e-01 4.159700687886608468e-04 8.565463878902855599e-04
2.500000000000000052e-04 2.343344406330727658e-01 4.237602369176299592e-04 8.194318812157330018e-04
2.642999999999999733e-04 2.477629128650125634e-01 4.345596643180389446e-04 7.890063723638815647e-04
3.052999999999999941e-04 2.862671839140227270e-01 4.644058706720978241e-04 7.612775562167708662e-04
3.533000000000000224e-04 3.313503829113090826e-01 4.987577676308450197e-04 7.626578558207241024e-04
4.075999999999999871e-04 3.823564017794535141e-01 5.381334366106255759e-04 7.813048116943254948e-04
4.679999999999999915e-04 4.390986251953180042e-01 5.832692638200615834e-04 8.096035963157804938e-04
5.341000000000000261e-04 5.012024644415256081e-01 6.346556894078133086e-04 8.452514814113673558e-04
6.059000000000000366e-04 5.686690698184251325e-01 6.930641302632923034e-04 8.862253587289389486e-04
7.661000000000000275e-04 7.192254882508629654e-01 8.328184776562496576e-04 9.702780530519144065e-04
1.262000000000000101e-03 1.185459127778160093e+00 1.338484980802662205e-03 1.198863597978450275e-03
1.894999999999999983e-03 1.780909071169781921e+00 2.123481960401060308e-03 1.437771491635827115e-03
2.673000000000000029e-03 2.513147344746868850e+00 3.261860252001994032e-03 1.671524566936786766e-03
3.605999999999999830e-03 3.391736073717691369e+00 4.828136641022434151e-03 1.893900408978071038e-03
4.709999999999999777e-03 4.431905410739045870e+00 6.903512974832482635e-03 2.096551352830673849e-03
7.496000000000000059e-03 7.058993649504918366e+00 1.289742191321638018e-02 2.466596387205546859e-03
1.119999999999999989e-02 1.055540362104863661e+01 2.212077014004794340e-02 2.809304433764861584e-03
1.600000000000000033e-02 1.509117352747679952e+01 3.559566804390756900e-02 3.132325055719984222e-03
2.206999999999999934e-02 2.083310616724802244e+01 5.457322122755020599e-02 3.477840948757840792e-03
2.947999999999999926e-02 2.785007348564149154e+01 8.049103664263126956e-02 3.909302116317729670e-03
4.268000000000000266e-02 4.036707211535221518e+01 1.353887601042819133e-01 4.862066536253286525e-03
6.219999999999999835e-02 5.891246509830522626e+01 2.419691225623893105e-01 6.630786177272363080e-03
7.316999999999999893e-02 6.935151695866235855e+01 3.161896974764099033e-01 7.588671314871411888e-03
7.595999999999999974e-02 7.200836722020332559e+01 3.371250777904805096e-01 8.170805199905812125e-03
7.685877551020407761e-02 7.286441676490780139e+01 3.442001035967031108e-01 8.358664579843395545e-03
7.775755102040816935e-02 7.372054996793551140e+01 3.514334372675894658e-01 8.539010945491896237e-03
7.865632653061224722e-02 7.457676765674487740e+01 3.588189249176307882e-01 8.712407091298330145e-03
7.955510204081632508e-02 7.543307057228953738e+01 3.663508924302357750e-01 8.879415811709735762e-03
8.045387755102040295e-02 7.628945937737240968e+01 3.740241456336700909e-01 9.040599901173129033e-03
8.135265306122449469e-02 7.714593466462801530e+01 3.818339704897020237e-01 9.196522154135541513e-03
8.225142857142857256e-02 7.800249696415461642e+01 3.897761332932030975e-01 9.347745365043994351e-03
8.315020408163265042e-02 7.885914675081444614e+01 3.978468808811638779e-01 9.494832328345517367e-03
8.404897959183672829e-02 7.971588445122111466e+01 4.060429408497734372e-01 9.638345838487133443e-03
8.494775510204082003e-02 8.057271045043020763e+01 4.143615217783959692e-01 9.778848689915870668e-03
8.584653061224489790e-02 8.142962509834877949e+01 4.228003134594414125e-01 9.916903677078751922e-03
8.674530612244897576e-02 8.228662871587928862e+01 4.313574871332875871e-01 1.005307359442280356e-02
8.764408163265305363e-02 8.314372160081143193e+01 4.400316957275519081e-01 1.018792123639505540e-02
8.854285714285714537e-02 8.400090403347404333e+01 4.488220741001524017e-01 1.032200939744253206e-02
8.944163265306122323e-02 8.485817628216052810e+01 4.577282392857212057e-01 1.045590087201225121e-02
9.034040816326530110e-02 8.571553860833886063e+01 4.667502907450569727e-01 1.059015845455124963e-02
9.123918367346939284e-02 8.657299127165613584e+01 4.758888106174094523e-01 1.072534493950655018e-02
9.213795918367347071e-02 8.743053453474855985e+01 4.851448639754982195e-01 1.086202312132517056e-02
9.303673469387754857e-02 8.828816866786681317e+01 4.945199990832663262e-01 1.100075579445414578e-02
9.393551020408162644e-02 8.914589395332431820e+01 5.040162476564569172e-01 1.114210575334049873e-02
9.483428571428570431e-02 9.000371068977850086e+01 5.136361251261934990e-01 1.128663579243125228e-02
9.573306122448979605e-02 9.086161919635155471e+01 5.233826309058224879e-01 1.143490870617343974e-02
9.663183673469387391e-02 9.171961981659947583e+01 5.332592486613541016e-01 1.158748728901407878e-02
9.753061224489795178e-02 9.257771292233582017e+01 5.432699465859116561e-01 1.174493433540019921e-02
9.842938775510204352e-02 9.343589891731704711e+01 5.534191776786639982e-01 1.190781263977882740e-02
9.932816326530612139e-02 9.429417824079561683e+01 5.637118800287832521e-01 1.207668499659698622e-02
1.002269387755101993e-01 9.515255137094719373e+01 5.741534771050301744e-01 1.225211420030170202e-02
1.011257142857142910e-01 9.601101882817778232e+01 5.847498780516239281e-01 1.243466304534000984e-02
1.020244897959183689e-01 9.686958117831562731e+01 5.955074779911108118e-01 1.262489432615891694e-02
1.029232653061224467e-01 9.772823903569327797e+01 6.064331583349964472e-01 1.282337083720546181e-02
1.038220408163265246e-01 9.858699306612497537e+01 6.175342871029524394e-01 1.303065537292666734e-02
1.047208163265306025e-01 9.944584398978368256e+01 6.288187192514577140e-01 1.324731072776955988e-02
1.056195918367346942e-01 1.003047925839819641e+02 6.402947970127760291e-01 1.347389969618116926e-02
1.065183673469387721e-01 1.011638396858615181e+02 6.519713502452122444e-01 1.371098507260851140e-02
1.074171428571428499e-01 1.020229861949945303e+02 6.638576967956327790e-01 1.395912965149861962e-02
1.083159183673469417e-01 1.028822330759013681e+02 6.759636428752670012e-01 1.421889622729852198e-02
1.092146938775510195e-01 1.037415813604875012e+02 6.882994834498463721e-01 1.449084759445523618e-02
1.101134693877550974e-01 1.046010321504042082e+02 7.008760026451725800e-01 1.477554654741579029e-02
1.110122448979591891e-01 1.054605866193344070e+02 7.137044741692331051e-01 1.507355588062721588e-02
1.119110204081632531e-01 1.063202460152092499e+02 7.267966617520172923e-01 1.538543838853653062e-02
1.128097959183673449e-01 1.071800116623559376e+02 7.401648196042186489e-01 1.571175686559076606e-02
1.137085714285714227e-01 1.080398849635815992e+02 7.538216928960246310e-01 1.605307410623694336e-02
1.146073469387755006e-01 1.088998674021949284e+02 7.677805182572408071e-01 1.640995290492208714e-02
1.155061224489795924e-01 1.097599605439683472e+02 7.820550243000037316e-01 1.678295605609324281e-02
1.164048979591836702e-01 1.106201660390428572e+02 7.966594321653730493e-01 1.717264635419740726e-02
1.173036734693877481e-01 1.114804856237794723e+02 8.116084560951156712e-01 1.757958659368161897e-02
1.182024489795918398e-01 1.123409211225571767e+02 8.269173040300111799e-01 1.800433956899291296e-02
1.191012244897959177e-01 1.132014744495214131e+02 8.426016782360377100e-01 1.844746807457829998e-02
1.199999999999999956e-01 1.140621476102848959e+02 8.586777759598159809e-01 1.890953490488481159e-02
1.216095987681284907e-01 1.156038167784209776e+02 8.884966131594904670e-01 1.977419672785393073e-02
1.232191975362569997e-01 1.171458895089881764e+02 9.196631547428408826e-01 2.064732007424575216e-02
1.248287963043854948e-01 1.186883782249274333e+02 9.521910993763177400e-01 2.152849484313310024e-02
1.264383950725140038e-01 1.202312952016429506e+02 9.860935547902807130e-01 2.241731361381474330e-02
1.280479938406424989e-01 1.217746525651349714e+02 1.021383041296630489e+00 2.331337171794565719e-02
1.296575926087709940e-01 1.233184622902733310e+02 1.058071495354589997e+00 2.421626730765442242e-02
1.312671913768994891e-01 1.248627361991992331e+02 1.096170273180786969e+00 2.512560141978084638e-02
1.328767901450279842e-01 1.264074859598510017e+02 1.135690154399992213e+00 2.604097803635608416e-02
1.344863889131565071e-01 1.279527230846058927e+02 1.176641345733045574e+00 2.696200414144268864e-02
1.360959876812850022e-01 1.294984589290303347e+02 1.219033484718659466e+00 2.788828977444299945e-02
1.377055864494134974e-01 1.310447046907345339e+02 1.262875643465960041e+00 2.881944807998174443e-02
1.393151852175419925e-01 1.325914714083235708e+02 1.308176332434741074e+00 2.975509535445722623e-02
1.409247839856704876e-01 1.341387699604424881e+02 1.354943504240557983e+00 3.069485108935769008e-02
1.425343827537989827e-01 1.356866110649062023e+02 1.403184557481898631e+00 3.163833801142788837e-02
1.441439815219274778e-01 1.372350052779143255e+02 1.452906340586779033e+00 3.258518211977108614e-02
1.457535802900560007e-01 1.387839629933428398e+02 1.504115155676216897e+00 3.353501271996651295e-02
1.473631790581844958e-01 1.403334944421094974e+02 1.556816762442126301e+00 3.448746245527783277e-02
1.489727778263129909e-01 1.418836096916112979e+02 1.611016382037279149e+00 3.544216733502617012e-02
1.505823765944414860e-01 1.434343186452257726e+02 1.666718700975032608e+00 3.639876676019733470e-02
1.521919753625699812e-01 1.449856310418771841e+02 1.723927875036628476e+00 3.735690354635052418e-02
1.538015741306985040e-01 1.465375564556619850e+02 1.782647533183919331e+00 3.831622394389341130e-02
1.554111728988269991e-01 1.480901042955299829e+02 1.842880781475444207e+00 3.927637765578496920e-02
1.570207716669554943e-01 1.496432838050211558e+02 1.904630206983856100e+00 4.023701785272757597e-02
1.586303704350839894e-01 1.511971040620513804e+02 1.967897881712722841e+00 4.119780118590479767e-02
1.602399692032124845e-01 1.527515739787480129e+02 2.032685366510812219e+00 4.215838779732265784e-02
1.618495679713409796e-01 1.543067023013308585e+02 2.098993714981998160e+00 4.311844132780767724e-02
1.634591667394694747e-01 1.558624976100364847e+02 2.166823477388980734e+00 4.407762892271549493e-02
1.650687655075979698e-01 1.574189683190844562e+02 2.236174704549048542e+00 4.503562123540093276e-02
1.666783642757264927e-01 1.589761226766826212e+02 2.307046951720155725e+00 4.599209242850023360e-02
1.682879630438549878e-01 1.605339687650691758e+02 2.379439282475616757e+00 4.694672017307346956e-02
1.698975618119834829e-01 1.620925145005911645e+02 2.453350272565779200e+00 4.789918564565575493e-02
1.715071605801119781e-01 1.636517676338150977e+02 2.528778013765023314e+00 4.884917352326297729e-02
1.731167593482405009e-01 1.652117357496713055e+02 2.605720117702515548e+00 4.979637197639798923e-02
1.747263581163689961e-01 1.667724262676262867e+02 2.684173719675136294e+00 5.074047266010158624e-02
1.763359568844974912e-01 1.683338464418855835e+02 2.764135482441063996e+00 5.168117070309212469e-02
1.779455556526259863e-01 1.698960033616230305e+02 2.845601599992474640e+00 5.261816469503596827e-02
1.795551544207544814e-01 1.714589039512350439e+02 2.928567801305892004e+00 5.355115667199139562e-02
1.811647531888829765e-01 1.730225549706211723e+02 3.013029354068713417e+00 5.447985210006646428e-02
1.827743519570114716e-01 1.745869630154855372e+02 3.098981068380469051e+00 5.540395985733136824e-02
1.843839507251399668e-01 1.761521345176613806e+02 3.186417300427393240e+00 5.632319221402509041e-02
1.859935494932684619e-01 1.777180757454565025e+02 3.275331956128904931e+00 5.723726481109515929e-02
1.876031482613969847e-01 1.792847928040164902e+02 3.365718494754615264e+00 5.814589663710870854e-02
1.892127470295254799e-01 1.808522916357088945e+02 3.457569932510489163e+00 5.904881000357250359e-02
1.908223457976539750e-01 1.824205780205223277e+02 3.550878846092834440e+00 5.994573051869924590e-02
1.924319445657824978e-01 1.839896575764832960e+02 3.645637376208759939e+00 6.083638705965619536e-02
1.940415433339109930e-01 1.855595357600881528e+02 3.741837231061804214e+00 6.172051174333167273e-02
1.956511421020394881e-01 1.871302178667492910e+02 3.839469689801444652e+00 6.259783989565576023e-02
1.972607408701679832e-01 1.887017090312543814e+02 3.938525605935182305e+00 6.346811001950836140e-02
1.988703396382964783e-01 1.902740142282401621e+02 4.038995410701949673e+00 6.433106376125001524e-02
2.764444143395557441e-01 2.676095201625986988e+02 1.350143090292999304e+01 1.780955077600597791e-01
3.540184890408150098e-01 3.488109089640911407e+02 3.272617531360241827e+01 2.918599517588695291e-01
4.315925637420742200e-01 4.353220859732365966e+02 6.309547465717356829e+01 4.056243957576792236e-01
5.091666384433335413e-01 5.283404811731379596e+02 1.063775210067886690e+02 5.193888397564889736e-01
5.867407131445927515e-01 6.289908830763002925e+02 1.647111519405370075e+02 6.331532837552986681e-01
6.643147878458519617e-01 7.376147102931548716e+02 2.142808837394829879e+02 2.941671510260406297e-01
7.418888625471112830e-01 8.508154118557690708e+02 2.523466430752911833e+02 3.765339957993322773e-01
8.194629372483704932e-01 9.688035570254226059e+02 3.131780763732936066e+02 6.446184074048652013e-01
8.970370119496297034e-01 1.093919441835561884e+03 3.995114792033095910e+02 7.312252515141752784e-01
9.746110866508890247e-01 1.227138804639088903e+03 4.975014910146650209e+02 7.397176020487641335e-01
1.052185161352148235e+00 1.368441481071335147e+03 6.026383031079747070e+02 7.482099525833528775e-01
1.129759236053407445e+00 1.517761368827189472e+03 7.150092374234336603e+02 7.567023031179417325e-01
1.207333310754666655e+00 1.675047821831867168e+03 8.347117484592758956e+02 7.651946536525304765e-01
1.284907385455926088e+00 1.840263272247683290e+03 9.618521033945468162e+02 7.736870041871193315e-01
1.362481460157185298e+00 2.013381357856646446e+03 1.096544359192751472e+03 7.821793547217081866e-01
1.440055534858444508e+00 2.194385425110570850e+03 1.238909558734701022e+03 7.906717052562969306e-01
1.517629609559703718e+00 2.383267316670852779e+03 1.389075091601942859e+03 7.991640557908856746e-01
1.595203684260962929e+00 2.580026377944110209e+03 1.547174180729298996e+03 8.076564063254745296e-01
1.672777758962222361e+00 2.784668634662680688e+03 1.713345466725583265e+03 8.161487568600633846e-01
1.750351833663481571e+00 2.997206105802560614e+03 1.887732668998787176e+03 8.246411073946521286e-01
1.827925908364740781e+00 3.217656224841683979e+03 2.070484308010676614e+03 8.331334579292408726e-01
1.905499983065999992e+00 3.446041348666303747e+03 2.261753476719809441e+03 8.416258084638297277e-01
1.983074057767259202e+00 3.682388338068023131e+03 2.461697652002035738e+03 8.501181589984184717e-01
2.060648132468518412e+00 3.926728197229779198e+03 2.670478538862221740e+03 8.586105095330073267e-01
