# density  energy_density  pressure   sound_speed_squared  [All in nuclear units]
2.720000000000000022e-14 2.529924618736292620e-11 1.061056609100270887e-19 3.766610435412189122e-08
1.269999999999999890e-13 1.181251617980081254e-10 4.870113551826584858e-18 6.497781477172163475e-08
6.929999999999999754e-13 6.445728594625782745e-10 1.018299070687946017e-16 3.033770597342807186e-07
6.295000000000000137e-12 5.855111460395753757e-09 5.487150723824490656e-15 1.763710043904196507e-06
1.581000000000000150e-11 1.470523320212576141e-08 2.904239460150760759e-14 3.559434472327477622e-06
3.971999999999999958e-11 3.694456170323160790e-08 1.439340266754906811e-13 6.772854871245677111e-06
9.975999999999999982e-11 9.278976412613005154e-08 6.812143616221268841e-13 1.246890511177539320e-05
2.505999999999999928e-10 2.330928829758143313e-07 3.107749196951638608e-12 2.212095130576091967e-05
6.294000000000000186e-10 5.854398883216247602e-07 1.363250409771533549e-11 3.761981047239428883e-05
1.581000000000000021e-09 1.470619631082054101e-06 5.726014178088476303e-11 6.095350986710739404e-05
3.971999999999999932e-09 3.694861084648016046e-06 2.210019573374265380e-10 8.628023653304385055e-05
5.000000000000000105e-09 4.651201787816927976e-06 3.071485916280120014e-10 9.387863480799757518e-05
9.975999999999999465e-09 9.280587964640925786e-06 8.385361004129998845e-10 1.356922228656245837e-04
1.989999999999999952e-08 1.851419242998081003e-05 2.287763168863418088e-09 1.782101978513718314e-04
3.972999999999999908e-08 3.696699295748789187e-05 6.061583099087538954e-09 2.308134738384234820e-04
7.925999999999999637e-08 7.375765469301719828e-05 1.575347858094044765e-08 2.960532096713864875e-04
1.580999999999999930e-07 1.471491184379128891e-04 3.910429618672550719e-08 3.402859755131850544e-04
1.991000000000000027e-07 1.853209783927820692e-04 5.252045687899177454e-08 3.626488188833278743e-04
3.155999999999999938e-07 2.938002528823880299e-04 9.730770378831954314e-08 4.630767356912104081e-04
5.000999999999999849e-07 4.656344063839075714e-04 1.837494945860225819e-07 5.430301232045120323e-04
6.295999999999999732e-07 5.862651417037388971e-04 2.503103884558263872e-07 5.605192962670089638e-04
9.666999999999999941e-07 9.003386739730535665e-04 4.324450868778576936e-07 5.993081670211623108e-04
1.531999999999999901e-06 1.427170885631398036e-03 7.780217275717420968e-07 7.125938556504039095e-04
2.506999999999999883e-06 2.336134972129507662e-03 1.471005394641589826e-06 8.121876172121876309e-04
3.974000000000000407e-06 3.704315759716615697e-03 2.695705763844323844e-06 9.780674166779417152e-04
4.830000000000000343e-06 4.502887798316278223e-03 3.503988717694660908e-06 1.046253037768318664e-03
6.080999999999999885e-06 5.670217999231269741e-03 4.731126407333307547e-06 1.056224360839501646e-03
7.930000000000000308e-06 7.396012414119570652e-03 6.599662989063778187e-06 1.109203753630785610e-03
9.982000000000000313e-06 9.311815711689977113e-03 8.879881089227186733e-06 1.271216815433141075e-03
1.256999999999999993e-05 1.172874412604260098e-02 1.207676739913533738e-05 1.374195438212825332e-03
1.521999999999999997e-05 1.420427250933824909e-02 1.547541302213394990e-05 1.371610497379100249e-03
1.991000000000000080e-05 1.858690797761085312e-02 2.160710455847765458e-05 1.426578142835871997e-03
2.506999999999999883e-05 2.341050104039446925e-02 2.908031724375689851e-05 1.672007475975408053e-03
2.790999999999999875e-05 2.606604784714952258e-02 3.357009132255487721e-05 1.709425557744154774e-03
3.806999999999999973e-05 3.556967988784798945e-02 4.986781576435106434e-05 1.720407281314112165e-03
5.063000000000000145e-05 4.732434580343149871e-02 7.073400252905581275e-05 1.829889149838781265e-03
6.592000000000000583e-05 6.164112392498975052e-02 9.765037643900635188e-05 1.930242980462695823e-03
8.433000000000000066e-05 7.888776783401378612e-02 1.317235490470395893e-04 2.021055815200022837e-03
1.062000000000000064e-04 9.938561165478684845e-02 1.740088341640037047e-04 2.104789529260958983e-03
1.321000000000000126e-04 1.236720406455826121e-01 2.260189757651373944e-04 2.178291718403657477e-03
1.623999999999999901e-04 1.520974545104751274e-01 2.888169908545388338e-04 2.240170365918073281e-03
1.689999999999999879e-04 1.582907717069566844e-01 3.027354772999506964e-04 2.254509350360745651e-03
1.758999999999999930e-04 1.647661861691531171e-01 3.173785841705756782e-04 2.268169273277113179e-03
1.830000000000000029e-04 1.714298948183871907e-01 3.325196584577469103e-04 2.276170334580628063e-03
1.901999999999999882e-04 1.781880600978280049e-01 3.479577791899843742e-04 2.292561569242367037e-03
1.977000000000000079e-04 1.852284385240466902e-01 3.641242634600037713e-04 2.299943765467868384e-03
2.054000000000000053e-04 1.924572004474696396e-01 3.808304060475003897e-04 2.322187632288155723e-03
2.079000000000000119e-04 1.948043378760714872e-01 3.864137987380476553e-04 2.435429768083530178e-03
2.081999999999999921e-04 1.950859988578999005e-01 3.870314100985603909e-04 1.950065624557156818e-03
2.090999999999999868e-04 1.959309855029948977e-01 3.881261957135444685e-04 6.411875526909013856e-04
2.159999999999999919e-04 2.024093317906446865e-01 3.940874488768042125e-04 1.199166870571831411e-03
2.231000000000000019e-04 2.090756740932291913e-01 4.013938420547467825e-04 9.928616047829054436e-04
2.311000000000000066e-04 2.165873044433437034e-01 4.085241694843774404e-04 9.056166966301716637e-04
2.401000000000000085e-04 2.250381721984245909e-01 4.159700687886608468e-04 8.565463878902855599e-04
2.500000000000000052e-04 2.343344406330727658e-01 4.237602369176299592e-04 8.194318812157330018e-04
2.642999999999999733e-04 2.477629128650125634e-01 4.345596643180389446e-04 7.890063723638815647e-04
3.052999999999999941e-04 2.862671839140227270e-01 4.644058706720978241e-04 7.612775562167708662e-04
3.533000000000000224e-04 3.313503829113090826e-01 4.987577676308450197e-04 7.626578558207241024e-04
4.075999999999999871e-04 3.823564017794535141e-01 5.381334366106255759e-04 7.813048116943254948e-04
4.679999999999999915e-04 4.390986251953180042e-01 5.832692638200615834e-04 8.096035963157804938e-04
5.341000000000000261e-04 5.012024644415256081e-01 6.346556894078133086e-04 8.452514814113673558e-04
6.059000000000000366e-04 5.686690698184251325e-01 6.930641302632923034e-04 8.862253587289389486e-04
7.661000000000000275e-04 7.192254882508629654e-01 8.328184776562496576e-04 9.702780530519144065e-04
1.262000000000000101e-03 1.185459127778160093e+00 1.338484980802662205e-03 1.198863597978450275e-03
1.894999999999999983e-03 1.780909071169781921e+00 2.123481960401060308e-03 1.437771491635827115e-03
2.673000000000000029e-03 2.513147344746868850e+00 3.261860252001994032e-03 1.671524566936786766e-03
3.605999999999999830e-03 3.391736073717691369e+00 4.828136641022434151e-03 1.893900408978071038e-03
4.709999999999999777e-03 4.431905410739045870e+00 6.903512974832482635e-03 2.096551352830673849e-03
7.496000000000000059e-03 7.058993649504918366e+00 1.289742191321638018e-02 2.466596387205546859e-03
1.119999999999999989e-02 1.055540362104863661e+01 2.212077014004794340e-02 2.809304433764861584e-03
1.600000000000000033e-02 1.509117352747679952e+01 3.559566804390756900e-02 3.132325055719984222e-03
2.206999999999999934e-02 2.083310616724802244e+01 5.457322122755020599e-02 3.477840948757840792e-03
2.947999999999999926e-02 2.785007348564149154e+01 8.049103664263126956e-02 3.909302116317729670e-03
4.268000000000000266e-02 4.036707211535221518e+01 1.353887601042819133e-01 4.862066536253286525e-03
6.219999999999999835e-02 5.891246509830522626e+01 2.419691225623893105e-01 6.630786177272363080e-03
7.316999999999999893e-02 6.935151695866235855e+01 3.161896974764099033e-01 7.588671314871411888e-03
7.595999999999999974e-02 7.200836722020332559e+01 3.371250777904805096e-01 8.170805199905812125e-03
7.685877551020407761e-02 7.286441683270189174e+01 3.442117054472643711e-01 8.385767486732127393e-03
7.775755102040816935e-02 7.372055041791684005e+01 3.514873960191856606e-01 8.610847513051186203e-03
7.865632653061224722e-02 7.457676924016135445e+01 3.589607587805362932e-01 8.845807715834578047e-03
7.955510204081632508e-02 7.543307463209922048e+01 3.666402036214405635e-01 9.090410532053902828e-03
8.045387755102040295e-02 7.628946799017589342e+01 3.745339410662915647e-01 9.344418398680758714e-03
8.135265306122449469e-02 7.714595077025303738e+01 3.826499822915657711e-01 9.607593752686738667e-03
8.225142857142857256e-02 7.800252448343714207e+01 3.909961391422874244e-01 9.879699031043435650e-03
8.315020408163265042e-02 7.885919069208978271e+01 3.995800241464781966e-01 1.016049667072244783e-02
8.404897959183672829e-02 7.971595100601135186e+01 4.084090505269814542e-01 1.044974910869536991e-02
8.494775510204082003e-02 8.057280707878732073e+01 4.174904322101067877e-01 1.074721878193380352e-02
8.584653061224489790e-02 8.142976060429005258e+01 4.268311838305867134e-01 1.105266812740933469e-02
8.674530612244897576e-02 8.228681331332629156e+01 4.364381207323875800e-01 1.136585958209356158e-02
8.764408163265305363e-02 8.314396697042448636e+01 4.463178589649537398e-01 1.168655558295808583e-02
8.854285714285714537e-02 8.400122337075323742e+01 4.564768152745100616e-01 1.201451856697450214e-02
8.944163265306122323e-02 8.485858433716475702e+01 4.669212070900804479e-01 1.234951097111439654e-02
9.034040816326530110e-02 8.571605171735734530e+01 4.776570525039195991e-01 1.269129523234937239e-02
9.123918367346939284e-02 8.657362738115037359e+01 4.886901702460824115e-01 1.303963378765102960e-02
9.213795918367347071e-02 8.743131321786650290e+01 5.000261796528904235e-01 1.339428907399095245e-02
9.303673469387754857e-02 8.828911113381519726e+01 5.116705006290831470e-01 1.375502352834074259e-02
9.393551020408162644e-02 8.914702304987405057e+01 5.236283536034650465e-01 1.412159958767199991e-02
9.483428571428570431e-02 9.000505089916133272e+01 5.359047594778889589e-01 1.449377968895630871e-02
9.573306122448979605e-02 9.086319662479654369e+01 5.485045395694372328e-01 1.487132626916528103e-02
9.663183673469387391e-02 9.172146217774496790e+01 5.614323155456850678e-01 1.525400176527049595e-02
9.753061224489795178e-02 9.257984951474070101e+01 5.746925093529533513e-01 1.564156861424355685e-02
9.842938775510204352e-02 9.343836059628699786e+01 5.882893431374731641e-01 1.603378925305606884e-02
9.932816326530612139e-02 9.429699738472741899e+01 6.022268391594068904e-01 1.643042611867959885e-02
1.002269387755101993e-01 9.515576184238716451e+01 6.165088196996890701e-01 1.683124164808577627e-02
1.011257142857142910e-01 9.601465592977973529e+01 6.311389069596610168e-01 1.723599827824617847e-02
1.020244897959183689e-01 9.687368160387606508e+01 6.461205229534934258e-01 1.764445844613240014e-02
1.029232653061224467e-01 9.773284081643444665e+01 6.614568893934075211e-01 1.805638458871604290e-02
1.038220408163265246e-01 9.859213551238718765e+01 6.771510275677115054e-01 1.847153914296869801e-02
1.047208163265306025e-01 9.945156762828203512e+01 6.932057582116902816e-01 1.888968454586196360e-02
1.056195918367346942e-01 1.003111390907766776e+02 7.096237013713950770e-01 1.931058323436744481e-02
1.065183673469387721e-01 1.011708518151821181e+02 7.264072762603895894e-01 1.973399764545671897e-02
1.074171428571428499e-01 1.020307077040551746e+02 7.435587011095268206e-01 2.015969021610138773e-02
1.083159183673469417e-01 1.028907086458358719e+02 7.610799930098320898e-01 2.058742338327305965e-02
1.092146938775510195e-01 1.037508565135296408e+02 7.789729677485848214e-01 2.101695958394331556e-02
1.101134693877550974e-01 1.046111531634302310e+02 7.972392396387018021e-01 2.144806125508375017e-02
1.110122448979591891e-01 1.054716004338845892e+02 8.158802213415258242e-01 2.188049083366597550e-02
1.119110204081632531e-01 1.063322001440943154e+02 8.348971236831389531e-01 2.231401075666156891e-02
1.128097959183673449e-01 1.071929540929562847e+02 8.542909554643317582e-01 2.274838346104213205e-02
1.137085714285714227e-01 1.080538640579367211e+02 8.740625232643493003e-01 2.318337138377926654e-02
1.146073469387755006e-01 1.089149317939804433e+02 8.942124312385704155e-01 2.361873696184455668e-02
1.155061224489795924e-01 1.097761590324525116e+02 9.147410809102560769e-01 2.405424263220961797e-02
1.164048979591836702e-01 1.106375474801108965e+02 9.356486709565260407e-01 2.448965083184602778e-02
1.173036734693877481e-01 1.114990988181093456e+02 9.569351969887279763e-01 2.492472399772538080e-02
1.182024489795918398e-01 1.123608147010294971e+02 9.786004513273607319e-01 2.535922456681928561e-02
1.191012244897959177e-01 1.132226967559396797e+02 1.000644022771727482e+00 2.579291497609932649e-02
1.199999999999999956e-01 1.140847465814818804e+02 1.023065296364501497e+00 2.622555766253710854e-02
1.210844992416935800e-01 1.151251568216996048e+02 1.050622464645230458e+00 2.674804619621122537e-02
1.221689984833871784e-01 1.161658163572648590e+02 1.078734192333063779e+00 2.727865053968916292e-02
1.232534977250807628e-01 1.172067279370926798e+02 1.107409300480951320e+00 2.781743786066499108e-02
1.243379969667743612e-01 1.182478943396963160e+02 1.136656691512142103e+00 2.836447539261383391e-02
1.254224962084679595e-01 1.192893183731237201e+02 1.166485349550281159e+00 2.891983042424137867e-02
1.265069954501615301e-01 1.203310028748990987e+02 1.196904340742822592e+00 2.948357028880913694e-02
1.275914946918551285e-01 1.213729507119694944e+02 1.227922813577658534e+00 3.005576235334732338e-02
1.286759939335487268e-01 1.224151647806559566e+02 1.259549999192870917e+00 3.063647400776404323e-02
1.297604931752422974e-01 1.234576480066082382e+02 1.291795211679539257e+00 3.122577265385759193e-02
1.308449924169358958e-01 1.245004033447639671e+02 1.324667848377526047e+00 3.182372569424338216e-02
1.319294916586294941e-01 1.255434337793118829e+02 1.358177390164171161e+00 3.243040052119904038e-02
1.330139909003230647e-01 1.265867423236581999e+02 1.392333401735851739e+00 3.304586450544087783e-02
1.340984901420166631e-01 1.276303320203964518e+02 1.427145531882353602e+00 3.367018498483397015e-02
1.351829893837102614e-01 1.286742059412801495e+02 1.462623513754003124e+00 3.430342925304697560e-02
1.362674886254038598e-01 1.297183671871996182e+02 1.498777165121540689e+00 3.494566454815624390e-02
1.373519878670974304e-01 1.307628188881597282e+02 1.535616388628692430e+00 3.559695804120712598e-02
1.384364871087910287e-01 1.318075642032622454e+02 1.573151172037429824e+00 3.625737682473903489e-02
1.395209863504846270e-01 1.328526063206891195e+02 1.611391588465881597e+00 3.692698790127962177e-02
1.406054855921782254e-01 1.338979484576892673e+02 1.650347796618907514e+00 3.760585817181466561e-02
1.416899848338717960e-01 1.349435938605661818e+02 1.690030041011311601e+00 3.829405442424064360e-02
1.427744840755653943e-01 1.359895458046692625e+02 1.730448652183704805e+00 3.899164332180353465e-02
1.438589833172589927e-01 1.370358075943855738e+02 1.771614046911005103e+00 3.969869139153116983e-02
1.449434825589525633e-01 1.380823825631339901e+02 1.813536728403601250e+00 4.041526501266363980e-02
1.460279818006461616e-01 1.391292740733613584e+02 1.856227286501186402e+00 4.114143040508727589e-02
1.471124810423397600e-01 1.401764855165394010e+02 1.899696397859266250e+00 4.187725361777681204e-02
1.481969802840333306e-01 1.412240203131634360e+02 1.943954826128383218e+00 4.262280051725127888e-02
1.492814795257269289e-01 1.422718819127529741e+02 1.989013422126073571e+00 4.337813677604772378e-02
1.503659787674205273e-01 1.433200737938524583e+02 2.034883124001574117e+00 4.414332786121748231e-02
1.514504780091140979e-01 1.443685994640333661e+02 2.081574957393333314e+00 4.491843902284975432e-02
1.525349772508076962e-01 1.454174624598988714e+02 2.129100035579352568e+00 4.570353528262664083e-02
1.536194764925012946e-01 1.464666663470870560e+02 2.177469559620385464e+00 4.649868142241331964e-02
1.547039757341948929e-01 1.475162147202763947e+02 2.226694818496062656e+00 4.730394197288854963e-02
1.557884749758884912e-01 1.485661112031922073e+02 2.276787189233969055e+00 4.811938120221830734e-02
1.568729742175820618e-01 1.496163594486132240e+02 2.327758137031728403e+00 4.894506310477714228e-02
1.579574734592756602e-01 1.506669631383784633e+02 2.379619215372153818e+00 4.978105138992062334e-02
1.590419727009692585e-01 1.517179259833959293e+02 2.432382066131501208e+00 5.062740947081265097e-02
1.601264719426628291e-01 1.527692517236505410e+02 2.486058419680904130e+00 5.148420045331136147e-02
1.612109711843564275e-01 1.538209441282131991e+02 2.540660094981042061e+00 5.235148712491652367e-02
1.622954704260500258e-01 1.548730069952497672e+02 2.596198999670090934e+00 5.322933194378231397e-02
1.633799696677435964e-01 1.559254441520308205e+02 2.652687130145042982e+00 5.411779702779838386e-02
1.644644689094371948e-01 1.569782594549420480e+02 2.710136571636454939e+00 5.501694414374280750e-02
1.655489681511307931e-01 1.580314567894930917e+02 2.768559498276676578e+00 5.592683469650934491e-02
1.666334673928243637e-01 1.590850400703284038e+02 2.827968173161658161e+00 5.684752971841260799e-02
1.677179666345179621e-01 1.601390132412380751e+02 2.888374948406398968e+00 5.777908985857409252e-02
1.688024658762115604e-01 1.611933802751670726e+02 2.949792265194095098e+00 5.872157537239105357e-02
1.698869651179051588e-01 1.622481451742266927e+02 3.012232653819094885e+00 5.967504611109232526e-02
1.709714643595987571e-01 1.633033119697042821e+02 3.075708733723714783e+00 6.063956151138297918e-02
1.720559636012923277e-01 1.643588847220738955e+02 3.140233213529006751e+00 6.161518058518024310e-02
1.731404628429859260e-01 1.654148675210067552e+02 3.205818891059566411e+00 6.260196190944435080e-02
2.512396370706800885e-01 2.438639206934944923e+02 1.697931821827502574e+01 2.810088952858891820e-01
3.293388112983742788e-01 3.285423397721943388e+02 4.335729703620307873e+01 3.398322323421569258e-01
4.074379855260684136e-01 4.200829038567522957e+02 7.359335924258292039e+01 3.223264403667893130e-01
4.855371597537625483e-01 5.174811350408674571e+02 1.040820236041520843e+02 3.048206483914217557e-01
5.636363339814567386e-01 6.197881413332476086e+02 1.343310760148044949e+02 2.873148564160541429e-01
6.417355082091509288e-01 7.262595598570558195e+02 1.639577565402005916e+02 2.698090644406865857e-01
7.198346824368450081e-01 8.362914426096488114e+02 1.926563857007775198e+02 2.523032724653190284e-01
7.979338566645391984e-01 9.493814698094668074e+02 2.201784936922799716e+02 2.347974804899514156e-01
8.760330308922333886e-01 1.065103878939792139e+03 2.463197397090101504e+02 2.172916885145838306e-01
9.541322051199275789e-01 1.183092413884667621e+03 2.709108333792347594e+02 1.997858965392162456e-01
1.032231379347621658e+00 1.303028250944042156e+03 2.938109671661017046e+02 1.822801045638486883e-01
1.110330553575315848e+00 1.424631163530046706e+03 3.149029040583127994e+02 1.647743125884811033e-01
1.188429727803010039e+00 1.547652878031193723e+03 3.340892012581818449e+02 1.472685206131135183e-01
1.266528902030704229e+00 1.672341207449322155e+03 3.720629260548756747e+02 4.579827250812127937e-01
1.344628076258398419e+00 1.800017829077893339e+03 4.221294943203868684e+02 3.284874187192711181e-01
1.422727250486092609e+00 1.930124667358329361e+03 4.563623907836820877e+02 1.989921123573294426e-01
1.500826424713786800e+00 2.061672155682885204e+03 4.754944951526538830e+02 9.237068750026874997e-02
1.578925598941480990e+00 2.193942631841741331e+03 4.847780981701193923e+02 4.808885185087231895e-02
1.657024773169175180e+00 2.326601223212694094e+03 4.913512475712767014e+02 5.100717264459988382e-02
1.735123947396869371e+00 2.459579093974633452e+03 4.983282910316721086e+02 5.392549343832745562e-02
1.813223121624563339e+00 2.592880101290279526e+03 5.057113056117745487e+02 5.684381423205501355e-02
1.891322295852257529e+00 2.726507859694650051e+03 5.135023880089062231e+02 5.976213502578258535e-02
1.969421470079951719e+00 2.860465771980975660e+03 5.217036536134669404e+02 6.268045581951015022e-02
2.047520644307645910e+00 2.994757055145530558e+03 5.303172356994192569e+02 6.559877661323772202e-02
