# density  energy_density  pressure   sound_speed_squared  [All in nuclear units]
2.720000000000000022e-14 2.529924618736292620e-11 1.061056609100270887e-19 3.766610435412189122e-08
1.269999999999999890e-13 1.181251617980081254e-10 4.870113551826584858e-18 6.497781477172163475e-08
6.929999999999999754e-13 6.445728594625782745e-10 1.018299070687946017e-16 3.033770597342807186e-07
6.295000000000000137e-12 5.855111460395753757e-09 5.487150723824490656e-15 1.763710043904196507e-06
1.581000000000000150e-11 1.470523320212576141e-08 2.904239460150760759e-14 3.559434472327477622e-06
3.971999999999999958e-11 3.694456170323160790e-08 1.439340266754906811e-13 6.772854871245677111e-06
9.975999999999999982e-11 9.278976412613005154e-08 6.812143616221268841e-13 1.246890511177539320e-05
2.505999999999999928e-10 2.330928829758143313e-07 3.107749196951638608e-12 2.212095130576091967e-05
6.294000000000000186e-10 5.854398883216247602e-07 1.363250409771533549e-11 3.761981047239428883e-05
1.581000000000000021e-09 1.470619631082054101e-06 5.726014178088476303e-11 6.095350986710739404e-05
3.971999999999999932e-09 3.694861084648016046e-06 2.210019573374265380e-10 8.628023653304385055e-05
5.000000000000000105e-09 4.651201787816927976e-06 3.071485916280120014e-10 9.387863480799757518e-05
9.975999999999999465e-09 9.280587964640925786e-06 8.385361004129998845e-10 1.356922228656245837e-04
1.989999999999999952e-08 1.851419242998081003e-05 2.287763168863418088e-09 1.782101978513718314e-04
3.972999999999999908e-08 3.696699295748789187e-05 6.061583099087538954e-09 2.308134738384234820e-04
7.925999999999999637e-08 7.375765469301719828e-05 1.575347858094044765e-08 2.960532096713864875e-04
1.580999999999999930e-07 1.471491184379128891e-04 3.910429618672550719e-08 3.402859755131850544e-04
1.991000000000000027e-07 1.853209783927820692e-04 5.252045687899177454e-08 3.626488188833278743e-04
3.155999999999999938e-07 2.938002528823880299e-04 9.730770378831954314e-08 4.630767356912104081e-04
5.000999999999999849e-07 4.656344063839075714e-04 1.837494945860225819e-07 5.430301232045120323e-04
6.295999999999999732e-07 5.862651417037388971e-04 2.503103884558263872e-07 5.605192962670089638e-04
9.666999999999999941e-07 9.003386739730535665e-04 4.324450868778576936e-07 5.993081670211623108e-04
1.531999999999999901e-06 1.427170885631398036e-03 7.780217275717420968e-07 7.125938556504039095e-04
2.506999999999999883e-06 2.336134972129507662e-03 1.471005394641589826e-06 8.121876172121876309e-04
3.974000000000000407e-06 3.704315759716615697e-03 2.695705763844323844e-06 9.780674166779417152e-04
4.830000000000000343e-06 4.502887798316278223e-03 3.503988717694660908e-06 1.046253037768318664e-03
6.080999999999999885e-06 5.670217999231269741e-03 4.731126407333307547e-06 1.056224360839501646e-03
7.930000000000000308e-06 7.396012414119570652e-03 6.599662989063778187e-06 1.109203753630785610e-03
9.982000000000000313e-06 9.311815711689977113e-03 8.879881089227186733e-06 1.271216815433141075e-03
1.256999999999999993e-05 1.172874412604260098e-02 1.207676739913533738e-05 1.374195438212825332e-03
1.521999999999999997e-05 1.420427250933824909e-02 1.547541302213394990e-05 1.371610497379100249e-03
1.991000000000000080e-05 1.858690797761085312e-02 2.160710455847765458e-05 1.426578142835871997e-03
2.506999999999999883e-05 2.341050104039446925e-02 2.908031724375689851e-05 1.672007475975408053e-03
2.790999999999999875e-05 2.606604784714952258e-02 3.357009132255487721e-05 1.709425557744154774e-03
3.806999999999999973e-05 3.556967988784798945e-02 4.986781576435106434e-05 1.720407281314112165e-03
5.063000000000000145e-05 4.732434580343149871e-02 7.073400252905581275e-05 1.829889149838781265e-03
6.592000000000000583e-05 6.164112392498975052e-02 9.765037643900635188e-05 1.930242980462695823e-03
8.433000000000000066e-05 7.888776783401378612e-02 1.317235490470395893e-04 2.021055815200022837e-03
1.062000000000000064e-04 9.938561165478684845e-02 1.740088341640037047e-04 2.104789529260958983e-03
1.321000000000000126e-04 1.236720406455826121e-01 2.260189757651373944e-04 2.178291718403657477e-03
1.623999999999999901e-04 1.520974545104751274e-01 2.888169908545388338e-04 2.240170365918073281e-03
1.689999999999999879e-04 1.582907717069566844e-01 3.027354772999506964e-04 2.254509350360745651e-03
1.758999999999999930e-04 1.647661861691531171e-01 3.173785841705756782e-04 2.268169273277113179e-03
1.830000000000000029e-04 1.714298948183871907e-01 3.325196584577469103e-04 2.276170334580628063e-03
1.901999999999999882e-04 1.781880600978280049e-01 3.479577791899843742e-04 2.292561569242367037e-03
1.977000000000000079e-04 1.852284385240466902e-01 3.641242634600037713e-04 2.299943765467868384e-03
2.054000000000000053e-04 1.924572004474696396e-01 3.808304060475003897e-04 2.322187632288155723e-03
2.079000000000000119e-04 1.948043378760714872e-01 3.864137987380476553e-04 2.435429768083530178e-03
2.081999999999999921e-04 1.950859988578999005e-01 3.870314100985603909e-04 1.950065624557156818e-03
2.090999999999999868e-04 1.959309855029948977e-01 3.881261957135444685e-04 6.411875526909013856e-04
2.159999999999999919e-04 2.024093317906446865e-01 3.940874488768042125e-04 1.199166870571831411e-03
2.231000000000000019e-04 2.090756740932291913e-01 4.013938420547467825e-04 9.928616047829054436e-04
2.311000000000000066e-04 2.165873044433437034e-01 4.085241694843774404e-04 9.056166966301716637e-04
2.401000000000000085e-04 2.250381721984245909e-01 4.159700687886608468e-04 8.565463878902855599e-04
2.500000000000000052e-04 2.343344406330727658e-01 4.237602369176299592e-04 8.194318812157330018e-04
2.642999999999999733e-04 2.477629128650125634e-01 4.345596643180389446e-04 7.890063723638815647e-04
3.052999999999999941e-04 2.862671839140227270e-01 4.644058706720978241e-04 7.612775562167708662e-04
3.533000000000000224e-04 3.313503829113090826e-01 4.987577676308450197e-04 7.626578558207241024e-04
4.075999999999999871e-04 3.823564017794535141e-01 5.381334366106255759e-04 7.813048116943254948e-04
4.679999999999999915e-04 4.390986251953180042e-01 5.832692638200615834e-04 8.096035963157804938e-04
5.341000000000000261e-04 5.012024644415256081e-01 6.346556894078133086e-04 8.452514814113673558e-04
6.059000000000000366e-04 5.686690698184251325e-01 6.930641302632923034e-04 8.862253587289389486e-04
7.661000000000000275e-04 7.192254882508629654e-01 8.328184776562496576e-04 9.702780530519144065e-04
1.262000000000000101e-03 1.185459127778160093e+00 1.338484980802662205e-03 1.198863597978450275e-03
1.894999999999999983e-03 1.780909071169781921e+00 2.123481960401060308e-03 1.437771491635827115e-03
2.673000000000000029e-03 2.513147344746868850e+00 3.261860252001994032e-03 1.671524566936786766e-03
3.605999999999999830e-03 3.391736073717691369e+00 4.828136641022434151e-03 1.893900408978071038e-03
4.709999999999999777e-03 4.431905410739045870e+00 6.903512974832482635e-03 2.096551352830673849e-03
7.496000000000000059e-03 7.058993649504918366e+00 1.289742191321638018e-02 2.466596387205546859e-03
1.119999999999999989e-02 1.055540362104863661e+01 2.212077014004794340e-02 2.809304433764861584e-03
1.600000000000000033e-02 1.509117352747679952e+01 3.559566804390756900e-02 3.132325055719984222e-03
2.206999999999999934e-02 2.083310616724802244e+01 5.457322122755020599e-02 3.477840948757840792e-03
2.947999999999999926e-02 2.785007348564149154e+01 8.049103664263126956e-02 3.909302116317729670e-03
4.268000000000000266e-02 4.036707211535221518e+01 1.353887601042819133e-01 4.862066536253286525e-03
6.219999999999999835e-02 5.891246509830522626e+01 2.419691225623893105e-01 6.630786177272363080e-03
7.316999999999999893e-02 6.935151695866235855e+01 3.161896974764099033e-01 7.588671314871411888e-03
7.595999999999999974e-02 7.200836722020332559e+01 3.371250777904805096e-01 8.170805199905812125e-03
7.685877551020407761e-02 7.286441680131562748e+01 3.442063341614711725e-01 8.373219708643188722e-03
7.775755102040816935e-02 7.372055020918237744e+01 3.514623439906511826e-01 8.577423992561984678e-03
7.865632653061224722e-02 7.457676850378256006e+01 3.588946600749197136e-01 8.783364501166755767e-03
7.955510204081632508e-02 7.543307273835888793e+01 3.665047903968203791e-01 8.990987683962087251e-03
8.045387755102040295e-02 7.628946395914002210e+01 3.742941981089710213e-01 9.200239990452548783e-03
8.135265306122449469e-02 7.714594320507434588e+01 3.822643015176407921e-01 9.411067870142715217e-03
8.225142857142857256e-02 7.800251150757593166e+01 3.904164740654825771e-01 9.623417772537150999e-03
8.315020408163265042e-02 7.885916989028119417e+01 3.987520443134329740e-01 9.837236147140430986e-03
8.404897959183672829e-02 7.971591936881580409e+01 4.072722959217875971e-01 1.005246944345713177e-02
8.494775510204082003e-02 8.057276095057123655e+01 4.159784676304645323e-01 1.026906411099182820e-02
8.584653061224489790e-02 8.142969563449111092e+01 4.248717532384653217e-01 1.048696659924907952e-02
8.674530612244897576e-02 8.228672441086540346e+01 4.339533015825465800e-01 1.070612335773346926e-02
8.764408163265305363e-02 8.314384826113385429e+01 4.432242165151112911e-01 1.092648083594956535e-02
8.854285714285714537e-02 8.400106815769679258e+01 4.526855568813334396e-01 1.114798548340194435e-02
8.944163265306122323e-02 8.485838506373298173e+01 4.623383364955260810e-01 1.137058374959517074e-02
9.034040816326530110e-02 8.571579993302562173e+01 4.721835241167672836e-01 1.159422208403382629e-02
9.123918367346939284e-02 8.657331370979379415e+01 4.822220434237933784e-01 1.181884693622247545e-02
9.213795918367347071e-02 8.743092732853126847e+01 4.924547729891731729e-01 1.204440475566569309e-02
9.303673469387754857e-02 8.828864171385087900e+01 5.028825462527770629e-01 1.227084199186805058e-02
9.393551020408162644e-02 8.914645778033468559e+01 5.135061514945509220e-01 1.249810509433412278e-02
9.483428571428570431e-02 9.000437643238969088e+01 5.243263318066100354e-01 1.272614051256848108e-02
9.573306122448979605e-02 9.086239856410874438e+01 5.353437850646648455e-01 1.295489469607569340e-02
9.663183673469387391e-02 9.172052505913643472e+01 5.465591638987911116e-01 1.318431409436033978e-02
9.753061224489795178e-02 9.257875679053960027e+01 5.579730756635604694e-01 1.341434515692698642e-02
9.842938775510204352e-02 9.343709462068241578e+01 5.695860824075414941e-01 1.364493433328021164e-02
9.932816326530612139e-02 9.429553940110568533e+01 5.813987008421852565e-01 1.387602807292457642e-02
1.002269387755101993e-01 9.515409197241028494e+01 5.934114023101122459e-01 1.410757282536466428e-02
1.011257142857142910e-01 9.601275316414447047e+01 6.056246127528099876e-01 1.433951504010504661e-02
1.020244897959183689e-01 9.687152379469505092e+01 6.180387126777566742e-01 1.457180116665028960e-02
1.029232653061224467e-01 9.773040467118157437e+01 6.306540371249875765e-01 1.480437765450496289e-02
1.038220408163265246e-01 9.858939658935503303e+01 6.434708756331128932e-01 1.503719095317365001e-02
1.047208163265306025e-01 9.944850033349807461e+01 6.564894722048058018e-01 1.527018751216091888e-02
1.056195918367346942e-01 1.003077166763302017e+02 6.697100252717720359e-01 1.550331378097133742e-02
1.065183673469387721e-01 1.011670463789146197e+02 6.831326876592160868e-01 1.573651620910948221e-02
1.074171428571428499e-01 1.020264901905682535e+02 6.967575665498197957e-01 1.596974124607992290e-02
1.083159183673469417e-01 1.028860488487746920e+02 7.105847234472446594e-01 1.620293534138723610e-02
1.092146938775510195e-01 1.037457230790994771e+02 7.246141741391739499e-01 1.643604494453598797e-02
1.101134693877550974e-01 1.046055135951082349e+02 7.388458886599114095e-01 1.666901650503075510e-02
1.110122448979591891e-01 1.054654210982864555e+02 7.532797912525462936e-01 1.690179647237611063e-02
1.119110204081632531e-01 1.063254462779622997e+02 7.679157603307024127e-01 1.713433129607661726e-02
1.128097959183673449e-01 1.071855898112313952e+02 7.827536284398886046e-01 1.736656742563686198e-02
1.137085714285714227e-01 1.080458523628832666e+02 7.977931822184566313e-01 1.759845131056140752e-02
1.146073469387755006e-01 1.089062345853302389e+02 8.130341623581925914e-01 1.782992940035482698e-02
1.155061224489795924e-01 1.097667371185386429e+02 8.284762635645480655e-01 1.806094814452170044e-02
1.164048979591836702e-01 1.106273605899604462e+02 8.441191345165287574e-01 1.829145399256658713e-02
1.173036734693877481e-01 1.114881056144685090e+02 8.599623778262586171e-01 1.852139339399406365e-02
1.182024489795918398e-01 1.123489727942917540e+02 8.760055499982292160e-01 1.875071279830871351e-02
1.191012244897959177e-01 1.132099627189537472e+02 8.922481613882523588e-01 1.897935865501509251e-02
1.199999999999999956e-01 1.140710759652111363e+02 9.086896761621328089e-01 1.920727741361778415e-02
1.219250149086628238e-01 1.159158435699277163e+02 9.445764382732371178e-01 1.969920071955855168e-02
1.238500298173256658e-01 1.177611852012060609e+02 9.814067943679057882e-01 2.021784682861640231e-02
1.257750447259884941e-01 1.196071069955991959e+02 1.019231481191283484e+00 2.076397700875915603e-02
1.277000596346513361e-01 1.214536156895890571e+02 1.058102705334976745e+00 2.133834661465620550e-02
1.296250745433141782e-01 1.233007186145590026e+02 1.098074136432272141e+00 2.194170510703643065e-02
1.315500894519769925e-01 1.251484236919663715e+02 1.139200900575536357e+00 2.257479606393992047e-02
1.334751043606398346e-01 1.269967394287025684e+02 1.181539573947787858e+00 2.323835718422112562e-02
1.354001192693026767e-01 1.288456749126304999e+02 1.225148176660870503e+00 2.393312028363165853e-02
1.373251341779655188e-01 1.306952398082899549e+02 1.270086166793071181e+00 2.465981128378326795e-02
1.392501490866283331e-01 1.325454443527603132e+02 1.316414434619352924e+00 2.541915019426663896e-02
1.411751639952911752e-01 1.343962993516757933e+02 1.364195297027700482e+00 2.621185108818129342e-02
1.431001789039540173e-01 1.362478161753803647e+02 1.413492492115330457e+00 2.703862207130942885e-02
1.450251938126168594e-01 1.381000067552206474e+02 1.464371173958779471e+00 2.790016524515237864e-02
1.469502087212796737e-01 1.399528835799654303e+02 1.516897907552068325e+00 2.879717666402999143e-02
1.488752236299425158e-01 1.418064596923486249e+02 1.571140663907344193e+00 2.973034628643094271e-02
1.508002385386053579e-01 1.436607486857280378e+02 1.627168815312533878e+00 3.070035792078832856e-02
1.527252534472681722e-01 1.455157647008556978e+02 1.685053130740709282e+00 3.170788916584454942e-02
1.546502683559310143e-01 1.473715224227536851e+02 1.744865771405953669e+00 3.275361134575858341e-02
1.565752832645938564e-01 1.492280370776915390e+02 1.806680286460613960e+00 3.383818944010045376e-02
1.585002981732566985e-01 1.510853244302595044e+02 1.870571608828927257e+00 3.496228200886966619e-02
1.604253130819195405e-01 1.529434007805349438e+02 1.936616051172042940e+00 3.612654111266671436e-02
1.623503279905823549e-01 1.548022829613362319e+02 2.004891301979528251e+00 3.733161222814134622e-02
1.642753428992451969e-01 1.566619883355627678e+02 2.075476421782480152e+00 3.857813415883466768e-02
1.662003578079080390e-01 1.585225347936136018e+02 2.148451839483371373e+00 3.986673894152852754e-02
1.681253727165708534e-01 1.603839407508864952e+02 2.223899348797804709e+00 4.119805174821004196e-02
1.700503876252336954e-01 1.622462251453493138e+02 2.301902104803321247e+00 4.257269078375661153e-02
1.719754025338965375e-01 1.641094074351837548e+02 2.382544620590403728e+00 4.399126717944230186e-02
1.739004174425593519e-01 1.659735075964978250e+02 2.465912764010826042e+00 4.545438488236500096e-02
1.758254323512221939e-01 1.678385461211033771e+02 2.552093754518448332e+00 4.696264054089087370e-02
1.777504472598850360e-01 1.697045440143578787e+02 2.641176160097522541e+00 4.851662338620989223e-02
1.796754621685478781e-01 1.715715227930659523e+02 2.733249894273568792e+00 5.011691511009674915e-02
1.816004770772107202e-01 1.734395044834397197e+02 2.828406213201796415e+00 5.176408973896825388e-02
1.835254919858735345e-01 1.753085116191147961e+02 2.926737712828017646e+00 5.345871350432841035e-02
1.854505068945363766e-01 1.771785672392207687e+02 3.028338326116939427e+00 5.520134470969192270e-02
1.873755218031992187e-01 1.790496948865029481e+02 3.133303320342641030e+00 5.699253359407577268e-02
1.893005367118620330e-01 1.809219186054928912e+02 3.241729294436009656e+00 5.883282219214980291e-02
1.912255516205248751e-01 1.827952629407288896e+02 3.353714176383810752e+00 6.072274419113596333e-02
1.931505665291877172e-01 1.846697529350194316e+02 3.469357220673978670e+00 6.266282478454740512e-02
1.950755814378505315e-01 1.865454141277527071e+02 3.588759005781684941e+00 6.465358052285850865e-02
1.970005963465134013e-01 1.884222725532476090e+02 3.712021431690612161e+00 6.669551916119860480e-02
1.989256112551762157e-01 1.903003547391444954e+02 3.839247717443763364e+00 6.878913950416186418e-02
2.008506261638390578e-01 1.921796877048355441e+02 3.970542398718135857e+00 7.093493124782868087e-02
2.027756410725018998e-01 1.940602989599316857e+02 4.106011325417347813e+00 7.313337481909325255e-02
2.047006559811647142e-01 1.959422165027653477e+02 4.245761659276361399e+00 7.538494121239538992e-02
2.066256708898275563e-01 1.978254688189260548e+02 4.389901871472248196e+00 7.769009182395494872e-02
2.085506857984903983e-01 1.997100848798298216e+02 4.538541740234863120e+00 8.004927828360923481e-02
2.104757007071532127e-01 2.015960941413182752e+02 4.691792348451223837e+00 8.246294228435578633e-02
2.124007156158160547e-01 2.034835265422869384e+02 4.849766081257254058e+00 8.493151540970521329e-02
2.143257305244788968e-01 2.053724125033426731e+02 5.012576623610425663e+00 8.745541895894920481e-02
2.915843890852037879e-01 2.835624494455109925e+02 2.183774470825706260e+01 3.338866701094615475e-01
3.688430476459287344e-01 3.685049820179256699e+02 5.883681976652523815e+01 5.248492274591531892e-01
4.461017062066536809e-01 4.623002291666750807e+02 9.875138664193005411e+01 3.380681575267867611e-01
5.233603647673785719e-01 5.621891308226985302e+02 1.318363801985418888e+02 3.252354337290627728e-01
6.006190233281034629e-01 6.670024036110623911e+02 1.652182934416434250e+02 3.124027099313388400e-01
6.778776818888283540e-01 7.761212077736302035e+02 1.985789498585008346e+02 2.995699861336148517e-01
7.551363404495533560e-01 8.890354818718576553e+02 2.316567584497828989e+02 2.867372623358908634e-01
8.323949990102782470e-01 1.005315393744969242e+03 2.642327572530068096e+02 2.739045385381668751e-01
9.096536575710031380e-01 1.124592395804424768e+03 2.961212337905192271e+02 2.610718147404429423e-01
9.869123161317280291e-01 1.246546081192354677e+03 3.271631230039050138e+02 2.482390909427189540e-01
1.064170974692453031e+00 1.370894731610821964e+03 3.572211853330355780e+02 2.354063671449949102e-01
1.141429633253177922e+00 1.497388316218849468e+03 3.861763769522380016e+02 2.225736433472709497e-01
1.218688291813903035e+00 1.625803176008923401e+03 4.139250477830068462e+02 2.097409195495469336e-01
1.295946950374627704e+00 1.755937901965650553e+03 4.403767319698042684e+02 1.969081957518230008e-01
1.373205608935352817e+00 1.887610080369345951e+03 4.654523734903398804e+02 1.840754719540989848e-01
1.450464267496077486e+00 2.020653681883278296e+03 4.890828785471566675e+02 1.712427481563750520e-01
1.527722926056802599e+00 2.154916937800906453e+03 5.112079181792400959e+02 1.584100243586510359e-01
1.604981584617527268e+00 2.290260591183651741e+03 5.317749257703746935e+02 1.455773005609271031e-01
1.682240243178252381e+00 2.426556440833539455e+03 5.507382486797397405e+02 1.327445767632030871e-01
1.759498901738977050e+00 2.563686117080879740e+03 5.680584234104351253e+02 1.199118529654791543e-01
1.836757560299702163e+00 2.701540043301065907e+03 5.837015510115967345e+02 1.070791291677551382e-01
1.914016218860427276e+00 2.840016547863508094e+03 5.976387547036431442e+02 9.424640537003114993e-02
1.991274877421151945e+00 2.979155910513705749e+03 6.177086302917966805e+02 1.939197238253219102e-01
2.068533535981877058e+00 3.119369282795301842e+03 6.548331501067193585e+02 3.347431709248321341e-01
