# density  energy_density  pressure   sound_speed_squared  [All in nuclear units]
2.720000000000000022e-14 2.529924618736292620e-11 1.061056609100270887e-19 3.766610435412189122e-08
1.269999999999999890e-13 1.181251617980081254e-10 4.870113551826584858e-18 6.497781477172163475e-08
6.929999999999999754e-13 6.445728594625782745e-10 1.018299070687946017e-16 3.033770597342807186e-07
6.295000000000000137e-12 5.855111460395753757e-09 5.487150723824490656e-15 1.763710043904196507e-06
1.581000000000000150e-11 1.470523320212576141e-08 2.904239460150760759e-14 3.559434472327477622e-06
3.971999999999999958e-11 3.694456170323160790e-08 1.439340266754906811e-13 6.772854871245677111e-06
9.975999999999999982e-11 9.278976412613005154e-08 6.812143616221268841e-13 1.246890511177539320e-05
2.505999999999999928e-10 2.330928829758143313e-07 3.107749196951638608e-12 2.212095130576091967e-05
6.294000000000000186e-10 5.854398883216247602e-07 1.363250409771533549e-11 3.761981047239428883e-05
1.581000000000000021e-09 1.470619631082054101e-06 5.726014178088476303e-11 6.095350986710739404e-05
3.971999999999999932e-09 3.694861084648016046e-06 2.210019573374265380e-10 8.628023653304385055e-05
5.000000000000000105e-09 4.651201787816927976e-06 3.071485916280120014e-10 9.387863480799757518e-05
9.975999999999999465e-09 9.280587964640925786e-06 8.385361004129998845e-10 1.356922228656245837e-04
1.989999999999999952e-08 1.851419242998081003e-05 2.287763168863418088e-09 1.782101978513718314e-04
3.972999999999999908e-08 3.696699295748789187e-05 6.061583099087538954e-09 2.308134738384234820e-04
7.925999999999999637e-08 7.375765469301719828e-05 1.575347858094044765e-08 2.960532096713864875e-04
1.580999999999999930e-07 1.471491184379128891e-04 3.910429618672550719e-08 3.402859755131850544e-04
1.991000000000000027e-07 1.853209783927820692e-04 5.252045687899177454e-08 3.626488188833278743e-04
3.155999999999999938e-07 2.938002528823880299e-04 9.730770378831954314e-08 4.630767356912104081e-04
5.000999999999999849e-07 4.656344063839075714e-04 1.837494945860225819e-07 5.430301232045120323e-04
6.295999999999999732e-07 5.862651417037388971e-04 2.503103884558263872e-07 5.605192962670089638e-04
9.666999999999999941e-07 9.003386739730535665e-04 4.324450868778576936e-07 5.993081670211623108e-04
1.531999999999999901e-06 1.427170885631398036e-03 7.780217275717420968e-07 7.125938556504039095e-04
2.506999999999999883e-06 2.336134972129507662e-03 1.471005394641589826e-06 8.121876172121876309e-04
3.974000000000000407e-06 3.704315759716615697e-03 2.695705763844323844e-06 9.780674166779417152e-04
4.830000000000000343e-06 4.502887798316278223e-03 3.503988717694660908e-06 1.046253037768318664e-03
6.080999999999999885e-06 5.670217999231269741e-03 4.731126407333307547e-06 1.056224360839501646e-03
7.930000000000000308e-06 7.396012414119570652e-03 6.599662989063778187e-06 1.109203753630785610e-03
9.982000000000000313e-06 9.311815711689977113e-03 8.879881089227186733e-06 1.271216815433141075e-03
1.256999999999999993e-05 1.172874412604260098e-02 1.207676739913533738e-05 1.374195438212825332e-03
1.521999999999999997e-05 1.420427250933824909e-02 1.547541302213394990e-05 1.371610497379100249e-03
1.991000000000000080e-05 1.858690797761085312e-02 2.160710455847765458e-05 1.426578142835871997e-03
2.506999999999999883e-05 2.341050104039446925e-02 2.908031724375689851e-05 1.672007475975408053e-03
2.790999999999999875e-05 2.606604784714952258e-02 3.357009132255487721e-05 1.709425557744154774e-03
3.806999999999999973e-05 3.556967988784798945e-02 4.986781576435106434e-05 1.720407281314112165e-03
5.063000000000000145e-05 4.732434580343149871e-02 7.073400252905581275e-05 1.829889149838781265e-03
6.592000000000000583e-05 6.164112392498975052e-02 9.765037643900635188e-05 1.930242980462695823e-03
8.433000000000000066e-05 7.888776783401378612e-02 1.317235490470395893e-04 2.021055815200022837e-03
1.062000000000000064e-04 9.938561165478684845e-02 1.740088341640037047e-04 2.104789529260958983e-03
1.321000000000000126e-04 1.236720406455826121e-01 2.260189757651373944e-04 2.178291718403657477e-03
1.623999999999999901e-04 1.520974545104751274e-01 2.888169908545388338e-04 2.240170365918073281e-03
1.689999999999999879e-04 1.582907717069566844e-01 3.027354772999506964e-04 2.254509350360745651e-03
1.758999999999999930e-04 1.647661861691531171e-01 3.173785841705756782e-04 2.268169273277113179e-03
1.830000000000000029e-04 1.714298948183871907e-01 3.325196584577469103e-04 2.276170334580628063e-03
1.901999999999999882e-04 1.781880600978280049e-01 3.479577791899843742e-04 2.292561569242367037e-03
1.977000000000000079e-04 1.852284385240466902e-01 3.641242634600037713e-04 2.299943765467868384e-03
2.054000000000000053e-04 1.924572004474696396e-01 3.808304060475003897e-04 2.322187632288155723e-03
2.079000000000000119e-04 1.948043378760714872e-01 3.864137987380476553e-04 2.435429768083530178e-03
2.081999999999999921e-04 1.950859988578999005e-01 3.870314100985603909e-04 1.950065624557156818e-03
2.090999999999999868e-04 1.959309855029948977e-01 3.881261957135444685e-04 6.411875526909013856e-04
2.159999999999999919e-04 2.024093317906446865e-01 3.940874488768042125e-04 1.199166870571831411e-03
2.231000000000000019e-04 2.090756740932291913e-01 4.013938420547467825e-04 9.928616047829054436e-04
2.311000000000000066e-04 2.165873044433437034e-01 4.085241694843774404e-04 9.056166966301716637e-04
2.401000000000000085e-04 2.250381721984245909e-01 4.159700687886608468e-04 8.565463878902855599e-04
2.500000000000000052e-04 2.343344406330727658e-01 4.237602369176299592e-04 8.194318812157330018e-04
2.642999999999999733e-04 2.477629128650125634e-01 4.345596643180389446e-04 7.890063723638815647e-04
3.052999999999999941e-04 2.862671839140227270e-01 4.644058706720978241e-04 7.612775562167708662e-04
3.533000000000000224e-04 3.313503829113090826e-01 4.987577676308450197e-04 7.626578558207241024e-04
4.075999999999999871e-04 3.823564017794535141e-01 5.381334366106255759e-04 7.813048116943254948e-04
4.679999999999999915e-04 4.390986251953180042e-01 5.832692638200615834e-04 8.096035963157804938e-04
5.341000000000000261e-04 5.012024644415256081e-01 6.346556894078133086e-04 8.452514814113673558e-04
6.059000000000000366e-04 5.686690698184251325e-01 6.930641302632923034e-04 8.862253587289389486e-04
7.661000000000000275e-04 7.192254882508629654e-01 8.328184776562496576e-04 9.702780530519144065e-04
1.262000000000000101e-03 1.185459127778160093e+00 1.338484980802662205e-03 1.198863597978450275e-03
1.894999999999999983e-03 1.780909071169781921e+00 2.123481960401060308e-03 1.437771491635827115e-03
2.673000000000000029e-03 2.513147344746868850e+00 3.261860252001994032e-03 1.671524566936786766e-03
3.605999999999999830e-03 3.391736073717691369e+00 4.828136641022434151e-03 1.893900408978071038e-03
4.709999999999999777e-03 4.431905410739045870e+00 6.903512974832482635e-03 2.096551352830673849e-03
7.496000000000000059e-03 7.058993649504918366e+00 1.289742191321638018e-02 2.466596387205546859e-03
1.119999999999999989e-02 1.055540362104863661e+01 2.212077014004794340e-02 2.809304433764861584e-03
1.600000000000000033e-02 1.509117352747679952e+01 3.559566804390756900e-02 3.132325055719984222e-03
2.206999999999999934e-02 2.083310616724802244e+01 5.457322122755020599e-02 3.477840948757840792e-03
2.947999999999999926e-02 2.785007348564149154e+01 8.049103664263126956e-02 3.909302116317729670e-03
4.268000000000000266e-02 4.036707211535221518e+01 1.353887601042819133e-01 4.862066536253286525e-03
6.219999999999999835e-02 5.891246509830522626e+01 2.419691225623893105e-01 6.630786177272363080e-03
7.316999999999999893e-02 6.935151695866235855e+01 3.161896974764099033e-01 7.588671314871411888e-03
7.595999999999999974e-02 7.200836722020332559e+01 3.371250777904805096e-01 8.170805199905812125e-03
7.685877551020407761e-02 7.286441679054770759e+01 3.442044914170324099e-01 8.368914901289027652e-03
7.775755102040816935e-02 7.372055013764210685e+01 3.514537617070737086e-01 8.565986229555956968e-03
7.865632653061224722e-02 7.457676825172819690e+01 3.588720593453795793e-01 8.762061398383966249e-03
7.955510204081632508e-02 7.543307209114497880e+01 3.664585912072111928e-01 8.957182621450435547e-03
8.045387755102040295e-02 7.628946258381900236e+01 3.742126003555635294e-01 9.151392112432741449e-03
8.135265306122449469e-02 7.714594062868796698e+01 3.821333660399439669e-01 9.344732085008257069e-03
8.225142857142857256e-02 7.800250709706155305e+01 3.902202036965924936e-01 9.537244752854353788e-03
8.315020408163265042e-02 7.885916283392221260e+01 3.984724649500631655e-01 9.728972329648413395e-03
8.404897959183672829e-02 7.971590865917070801e+01 4.068895376160879263e-01 9.919957029067805535e-03
8.494775510204082003e-02 8.057274536881763538e+01 4.154708457056527360e-01 1.011024106478990853e-02
8.584653061224489790e-02 8.142967373612461301e+01 4.242158494302181171e-01 1.029986665049209549e-02
8.674530612244897576e-02 8.228669451269813351e+01 4.331240452080241665e-01 1.048887599985174300e-02
8.764408163265305363e-02 8.314380842953805484e+01 4.421949656714185828e-01 1.067731132654622765e-02
8.854285714285714537e-02 8.400101619804262043e+01 4.514281796751560272e-01 1.086521484425292602e-02
8.944163265306122323e-02 8.485831851097344725e+01 4.608232923056164165e-01 1.105262876664920429e-02
9.034040816326530110e-02 8.571571604338177508e+01 4.703799448908969616e-01 1.123959530741244252e-02
9.123918367346939284e-02 8.657320945349717078e+01 4.800978150117314325e-01 1.142615668022002248e-02
9.213795918367347071e-02 8.743079938358222591e+01 4.899766165131958506e-01 1.161235509874931210e-02
9.303673469387754857e-02 8.828848646075370254e+01 5.000160995171646361e-01 1.179823277667768622e-02
9.393551020408162644e-02 8.914627129777200309e+01 5.102160504354774639e-01 1.198383192768252142e-02
9.483428571428570431e-02 9.000415449380047050e+01 5.205762919837861880e-01 1.216919476544119083e-02
9.573306122448979605e-02 9.086213663513616723e+01 5.310966831960495238e-01 1.235436350363107796e-02
9.663183673469387391e-02 9.172021829591353992e+01 5.417771194396456824e-01 1.253938035592955073e-02
9.753061224489795178e-02 9.257840003878169455e+01 5.526175324310784731e-01 1.272428753601398052e-02
9.842938775510204352e-02 9.343668241555695886e+01 5.636178902522481771e-01 1.290912725756175605e-02
9.932816326530612139e-02 9.429506596785174111e+01 5.747781973672654310e-01 1.309394173425023657e-02
1.002269387755101993e-01 9.515355122768129092e+01 5.860984946397875817e-01 1.327877317975680732e-02
1.011257142857142910e-01 9.601213871804783651e+01 5.975788593508546409e-01 1.346366380775883970e-02
1.020244897959183689e-01 9.687082895350485501e+01 6.092194052172072993e-01 1.364865583193371375e-02
1.029232653061224467e-01 9.772962244070160409e+01 6.210202824100710117e-01 1.383379146595879565e-02
1.038220408163265246e-01 9.858851967890861090e+01 6.329816775743869472e-01 1.401911292351146546e-02
1.047208163265306025e-01 9.944752116052494273e+01 6.451038138484778139e-01 1.420466241826910149e-02
1.056195918367346942e-01 1.003066273715687657e+02 6.573869508841336806e-01 1.439048216390907686e-02
1.065183673469387721e-01 1.011658387921507511e+02 6.698313848671040294e-01 1.457661437410876643e-02
1.074171428571428499e-01 1.020251558969321763e+02 6.824374485379880451e-01 1.476310126254553809e-02
1.083159183673469417e-01 1.028845791555675930e+02 6.952055112135084869e-01 1.494998504289677885e-02
1.092146938775510195e-01 1.037441090331332560e+02 7.081359788081610374e-01 1.513730792883985835e-02
1.101134693877550974e-01 1.046037459905411282e+02 7.212292938562329114e-01 1.532511213405214970e-02
1.110122448979591891e-01 1.054634904849401806e+02 7.344859355341781804e-01 1.551343987221103296e-02
1.119110204081632531e-01 1.063233429701042354e+02 7.479064196833455913e-01 1.570233335699387778e-02
1.128097959183673449e-01 1.071833038968083116e+02 7.614912988330545529e-01 1.589183480207806420e-02
1.137085714285714227e-01 1.080433737131919685e+02 7.752411622240062972e-01 1.608198642114096535e-02
1.146073469387755006e-01 1.089035528651131415e+02 7.891566358320348806e-01 1.627283042785995087e-02
1.155061224489795924e-01 1.097638417964887907e+02 8.032383823921864785e-01 1.646440903591241123e-02
1.164048979591836702e-01 1.106242409496274348e+02 8.174871014231251953e-01 1.665676445897570912e-02
1.173036734693877481e-01 1.114847507655498760e+02 8.319035292518648372e-01 1.684993891072721767e-02
1.182024489795918398e-01 1.123453716843012131e+02 8.464884390388206503e-01 1.704397460484432039e-02
1.191012244897959177e-01 1.132061041452528514e+02 8.612426408031795821e-01 1.723891375500439041e-02
1.199999999999999956e-01 1.140669485873968796e+02 8.761669814485905095e-01 1.743479857488479737e-02
1.238247757210865774e-01 1.177315774423405230e+02 9.416285514489590724e-01 1.829117581757162825e-02
1.276495514421731592e-01 1.213982792357258234e+02 1.010403983135954142e+00 1.922212029621691437e-02
1.314743271632597688e-01 1.250670954076670824e+02 1.082780142382322452e+00 2.023241173119289318e-02
1.352991028843463506e-01 1.287380735987689775e+02 1.159062269891706576e+00 2.132687908815712741e-02
1.391238786054329324e-01 1.324112676473630188e+02 1.239574249755666546e+00 2.251039952810374861e-02
1.429486543265195142e-01 1.360867375944888806e+02 1.324658882412959038e+00 2.378789729534802264e-02
1.467734300476060960e-01 1.397645496957063358e+02 1.414678162479383827e+00 2.516434256090081464e-02
1.505982057686927056e-01 1.434447764389813358e+02 1.510013561992438413e+00 2.664475023473721407e-02
1.544229814897792874e-01 1.471274965680194100e+02 1.611066319678305048e+00 2.823417875728689158e-02
1.582477572108658692e-01 1.508127951105285547e+02 1.718257736901888544e+00 2.993772887791438381e-02
1.620725329319524510e-01 1.545007634109840353e+02 1.832029481005647664e+00 3.176054242606764916e-02
1.658973086530390328e-01 1.581914991675496083e+02 1.952843896781485622e+00 3.370780107905675671e-02
1.697220843741256424e-01 1.618851064728681308e+02 2.081184326853102728e+00 3.578472512898882990e-02
1.735468600952122242e-01 1.655816958584972554e+02 2.217555441774967662e+00 3.799657225016424972e-02
1.773716358162988060e-01 1.692813843428120606e+02 2.362483580679154205e+00 4.034863626717818258e-02
1.811964115373853879e-01 1.729842954822344154e+02 2.516517103323170357e+00 4.284624592302073431e-02
1.850211872584719974e-01 1.766905594256899974e+02 2.680226754411086709e+00 4.549476364559600777e-02
1.888459629795585792e-01 1.804003129722199787e+02 2.854206041076861045e+00 4.829958431025168503e-02
1.926707387006451611e-01 1.841136996317046624e+02 3.039071624433034469e+00 5.126613399509850205e-02
1.964955144217317429e-01 1.878308696886772395e+02 3.235463726099848891e+00 5.439986872508781324e-02
2.003202901428183247e-01 1.915519802692273004e+02 3.444046550639435988e+00 5.770627319997861243e-02
2.041450658639049065e-01 1.952771954110115473e+02 3.665508724826822551e+00 6.119085950045918126e-02
2.079698415849914883e-01 1.990066861364032889e+02 3.900563754694006846e+00 6.485916576576722381e-02
2.117946173060780979e-01 2.027406305288303940e+02 4.149950501285045945e+00 6.871675483517949989e-02
2.156193930271646797e-01 2.064792138123548852e+02 4.414433676058670208e+00 7.276921284469779760e-02
2.194441687482512893e-01 2.102226284345671274e+02 4.694804356870196038e+00 7.702214776914606542e-02
2.232689444693378711e-01 2.139710741528711537e+02 4.991880525455890449e+00 8.148118789870102685e-02
2.270937201904244529e-01 2.177247581242441470e+02 5.306507627330378618e+00 8.615198023761225232e-02
2.309184959115110347e-01 2.214838949985656313e+02 5.639559154990392287e+00 9.104018881151763887e-02
2.347432716325976165e-01 2.252487070156114441e+02 5.991937255296033271e+00 9.615149286833728215e-02
2.385680473536841983e-01 2.290194241058134423e+02 6.364573361873042678e+00 1.014915849562299799e-01
2.423928230747707802e-01 2.327962839948939973e+02 6.758428853345987086e+00 1.070661688605314826e-01
2.462175987958573897e-01 2.365795323124785057e+02 7.174495738172208092e+00 1.128809573799701982e-01
2.500423745169439993e-01 2.403694227047986942e+02 7.613797366799330391e+00 1.189416699207840322e-01
2.538671502380305256e-01 2.441662169515944072e+02 8.077389171814632007e+00 1.252540298856580359e-01
2.576919259591171629e-01 2.479701850873258877e+02 8.566359436692030371e+00 1.318237618326821570e-01
2.615167016802037447e-01 2.517816055268020250e+02 9.081830093671159787e+00 1.386565883778054509e-01
2.653414774012903266e-01 2.556007651953328548e+02 9.624957551223319641e+00 1.457582268125824920e-01
2.691662531223769084e-01 2.594279596635087159e+02 1.019693355146896074e+01 1.531343854073592692e-01
2.729910288434634902e-01 2.632634932867044313e+02 1.079898605781226273e+01 1.607907593685047043e-01
2.768158045645500720e-01 2.671076793494008825e+02 1.143238017294834030e+01 1.687330264168570293e-01
2.806405802856366538e-01 2.709608402144143611e+02 1.209841908727831772e+01 1.769668419532825776e-01
2.844653560067232911e-01 2.748233074771069937e+02 1.279844505763627716e+01 1.854978337761749030e-01
2.882901317278098174e-01 2.786954221246577958e+02 1.353384041608986799e+01 1.943315963148898873e-01
2.921149074488964548e-01 2.825775347004464493e+02 1.430602860842355639e+01 2.034736843425984931e-01
2.959396831699829811e-01 2.864700054736067614e+02 1.511647526174885492e+01 2.129296061318419475e-01
2.997644588910696184e-01 2.903732046137857310e+02 1.596668928051239433e+01 2.227048160163248580e-01
3.035892346121562002e-01 2.942875123711313563e+02 1.685822396998669603e+01 2.328047063231553637e-01
3.074140103332427820e-01 2.982133192615226562e+02 1.779267818613563534e+01 2.432345986409792382e-01
3.827729080815439611e-01 3.783411396467270720e+02 4.327804451339343217e+01 3.870590377519781966e-01
4.581318058298451401e-01 4.647389208496214223e+02 8.314817165461886361e+01 5.282976782503832069e-01
5.334907035781462081e-01 5.587175216696946336e+02 1.330744159386549370e+02 5.345968373602407731e-01
6.088496013264474982e-01 6.600803423396835115e+02 1.875690604970035338e+02 5.408959964700984502e-01
6.842084990747485662e-01 7.684706452658463149e+02 2.465294413181156870e+02 5.471951555799560163e-01
7.595673968230497453e-01 8.836011860534806601e+02 3.098849842490595279e+02 5.534943146898135824e-01
8.349262945713509243e-01 1.005202865852350101e+03 3.760461255850144653e+02 5.356861320805843540e-01
9.102851923196521033e-01 1.132794808928171506e+03 4.415403897700737730e+02 4.926235765786530774e-01
9.856440900679532824e-01 1.265695075886204449e+03 5.040577855810035430e+02 4.495610210767218007e-01
1.061002987816254350e+00 1.403240068917632925e+03 5.628551857595512047e+02 4.064984655747905240e-01
1.136361885564555640e+00 1.545110715322705346e+03 6.338746331233695628e+02 5.901241776386060289e-01
1.211720783312856708e+00 1.692431428388892755e+03 7.215263018744255987e+02 5.996852899264069059e-01
1.287079681061157999e+00 1.845351991354435086e+03 8.139721907708589015e+02 6.092464022142077829e-01
1.362438578809459067e+00 2.003827429604926238e+03 9.112916997995104111e+02 6.188075145020086598e-01
1.437797476557760357e+00 2.167822277547131307e+03 1.013568883065738419e+03 6.283686267898095368e-01
1.513156374306061425e+00 2.337309313334838407e+03 1.120892007952463473e+03 6.379297390776103027e-01
1.588515272054362493e+00 2.512268526472657868e+03 1.233353204392335329e+03 6.474908513654111797e-01
1.663874169802663783e+00 2.692686266712305041e+03 1.351048183682115678e+03 6.570519636532120566e-01
1.739233067550964851e+00 2.878554535902852422e+03 1.474076011677656879e+03 6.666130759410129336e-01
1.814591965299266141e+00 3.069870393873584362e+03 1.602538925024899754e+03 6.761741882288138106e-01
1.889950863047567209e+00 3.266635456236372193e+03 1.736542181822208704e+03 6.857353005166146875e-01
1.965309760795868499e+00 3.468855466992496531e+03 1.876193940106707032e+03 6.952964128044155645e-01
2.040668658544169567e+00 3.676539932548682373e+03 2.021605159033804966e+03 7.048575250922164415e-01
2.116027556292470635e+00 3.889701806551221580e+03 2.172889518724736718e+03 7.144186373800173184e-01
