# density  energy_density  pressure   sound_speed_squared  [All in nuclear units]
2.720000000000000022e-14 2.529924618736292620e-11 1.061056609100270887e-19 3.766610435412189122e-08
1.269999999999999890e-13 1.181251617980081254e-10 4.870113551826584858e-18 6.497781477172163475e-08
6.929999999999999754e-13 6.445728594625782745e-10 1.018299070687946017e-16 3.033770597342807186e-07
6.295000000000000137e-12 5.855111460395753757e-09 5.487150723824490656e-15 1.763710043904196507e-06
1.581000000000000150e-11 1.470523320212576141e-08 2.904239460150760759e-14 3.559434472327477622e-06
3.971999999999999958e-11 3.694456170323160790e-08 1.439340266754906811e-13 6.772854871245677111e-06
9.975999999999999982e-11 9.278976412613005154e-08 6.812143616221268841e-13 1.246890511177539320e-05
2.505999999999999928e-10 2.330928829758143313e-07 3.107749196951638608e-12 2.212095130576091967e-05
6.294000000000000186e-10 5.854398883216247602e-07 1.363250409771533549e-11 3.761981047239428883e-05
1.581000000000000021e-09 1.470619631082054101e-06 5.726014178088476303e-11 6.095350986710739404e-05
3.971999999999999932e-09 3.694861084648016046e-06 2.210019573374265380e-10 8.628023653304385055e-05
5.000000000000000105e-09 4.651201787816927976e-06 3.071485916280120014e-10 9.387863480799757518e-05
9.975999999999999465e-09 9.280587964640925786e-06 8.385361004129998845e-10 1.356922228656245837e-04
1.989999999999999952e-08 1.851419242998081003e-05 2.287763168863418088e-09 1.782101978513718314e-04
3.972999999999999908e-08 3.696699295748789187e-05 6.061583099087538954e-09 2.308134738384234820e-04
7.925999999999999637e-08 7.375765469301719828e-05 1.575347858094044765e-08 2.960532096713864875e-04
1.580999999999999930e-07 1.471491184379128891e-04 3.910429618672550719e-08 3.402859755131850544e-04
1.991000000000000027e-07 1.853209783927820692e-04 5.252045687899177454e-08 3.626488188833278743e-04
3.155999999999999938e-07 2.938002528823880299e-04 9.730770378831954314e-08 4.630767356912104081e-04
5.000999999999999849e-07 4.656344063839075714e-04 1.837494945860225819e-07 5.430301232045120323e-04
6.295999999999999732e-07 5.862651417037388971e-04 2.503103884558263872e-07 5.605192962670089638e-04
9.666999999999999941e-07 9.003386739730535665e-04 4.324450868778576936e-07 5.993081670211623108e-04
1.531999999999999901e-06 1.427170885631398036e-03 7.780217275717420968e-07 7.125938556504039095e-04
2.506999999999999883e-06 2.336134972129507662e-03 1.471005394641589826e-06 8.121876172121876309e-04
3.974000000000000407e-06 3.704315759716615697e-03 2.695705763844323844e-06 9.780674166779417152e-04
4.830000000000000343e-06 4.502887798316278223e-03 3.503988717694660908e-06 1.046253037768318664e-03
6.080999999999999885e-06 5.670217999231269741e-03 4.731126407333307547e-06 1.056224360839501646e-03
7.930000000000000308e-06 7.396012414119570652e-03 6.599662989063778187e-06 1.109203753630785610e-03
9.982000000000000313e-06 9.311815711689977113e-03 8.879881089227186733e-06 1.271216815433141075e-03
1.256999999999999993e-05 1.172874412604260098e-02 1.207676739913533738e-05 1.374195438212825332e-03
1.521999999999999997e-05 1.420427250933824909e-02 1.547541302213394990e-05 1.371610497379100249e-03
1.991000000000000080e-05 1.858690797761085312e-02 2.160710455847765458e-05 1.426578142835871997e-03
2.506999999999999883e-05 2.341050104039446925e-02 2.908031724375689851e-05 1.672007475975408053e-03
2.790999999999999875e-05 2.606604784714952258e-02 3.357009132255487721e-05 1.709425557744154774e-03
3.806999999999999973e-05 3.556967988784798945e-02 4.986781576435106434e-05 1.720407281314112165e-03
5.063000000000000145e-05 4.732434580343149871e-02 7.073400252905581275e-05 1.829889149838781265e-03
6.592000000000000583e-05 6.164112392498975052e-02 9.765037643900635188e-05 1.930242980462695823e-03
8.433000000000000066e-05 7.888776783401378612e-02 1.317235490470395893e-04 2.021055815200022837e-03
1.062000000000000064e-04 9.938561165478684845e-02 1.740088341640037047e-04 2.104789529260958983e-03
1.321000000000000126e-04 1.236720406455826121e-01 2.260189757651373944e-04 2.178291718403657477e-03
1.623999999999999901e-04 1.520974545104751274e-01 2.888169908545388338e-04 2.240170365918073281e-03
1.689999999999999879e-04 1.582907717069566844e-01 3.027354772999506964e-04 2.254509350360745651e-03
1.758999999999999930e-04 1.647661861691531171e-01 3.173785841705756782e-04 2.268169273277113179e-03
1.830000000000000029e-04 1.714298948183871907e-01 3.325196584577469103e-04 2.276170334580628063e-03
1.901999999999999882e-04 1.781880600978280049e-01 3.479577791899843742e-04 2.292561569242367037e-03
1.977000000000000079e-04 1.852284385240466902e-01 3.641242634600037713e-04 2.299943765467868384e-03
2.054000000000000053e-04 1.924572004474696396e-01 3.808304060475003897e-04 2.322187632288155723e-03
2.079000000000000119e-04 1.948043378760714872e-01 3.864137987380476553e-04 2.435429768083530178e-03
2.081999999999999921e-04 1.950859988578999005e-01 3.870314100985603909e-04 1.950065624557156818e-03
2.090999999999999868e-04 1.959309855029948977e-01 3.881261957135444685e-04 6.411875526909013856e-04
2.159999999999999919e-04 2.024093317906446865e-01 3.940874488768042125e-04 1.199166870571831411e-03
2.231000000000000019e-04 2.090756740932291913e-01 4.013938420547467825e-04 9.928616047829054436e-04
2.311000000000000066e-04 2.165873044433437034e-01 4.085241694843774404e-04 9.056166966301716637e-04
2.401000000000000085e-04 2.250381721984245909e-01 4.159700687886608468e-04 8.565463878902855599e-04
2.500000000000000052e-04 2.343344406330727658e-01 4.237602369176299592e-04 8.194318812157330018e-04
2.642999999999999733e-04 2.477629128650125634e-01 4.345596643180389446e-04 7.890063723638815647e-04
3.052999999999999941e-04 2.862671839140227270e-01 4.644058706720978241e-04 7.612775562167708662e-04
3.533000000000000224e-04 3.313503829113090826e-01 4.987577676308450197e-04 7.626578558207241024e-04
4.075999999999999871e-04 3.823564017794535141e-01 5.381334366106255759e-04 7.813048116943254948e-04
4.679999999999999915e-04 4.390986251953180042e-01 5.832692638200615834e-04 8.096035963157804938e-04
5.341000000000000261e-04 5.012024644415256081e-01 6.346556894078133086e-04 8.452514814113673558e-04
6.059000000000000366e-04 5.686690698184251325e-01 6.930641302632923034e-04 8.862253587289389486e-04
7.661000000000000275e-04 7.192254882508629654e-01 8.328184776562496576e-04 9.702780530519144065e-04
1.262000000000000101e-03 1.185459127778160093e+00 1.338484980802662205e-03 1.198863597978450275e-03
1.894999999999999983e-03 1.780909071169781921e+00 2.123481960401060308e-03 1.437771491635827115e-03
2.673000000000000029e-03 2.513147344746868850e+00 3.261860252001994032e-03 1.671524566936786766e-03
3.605999999999999830e-03 3.391736073717691369e+00 4.828136641022434151e-03 1.893900408978071038e-03
4.709999999999999777e-03 4.431905410739045870e+00 6.903512974832482635e-03 2.096551352830673849e-03
7.496000000000000059e-03 7.058993649504918366e+00 1.289742191321638018e-02 2.466596387205546859e-03
1.119999999999999989e-02 1.055540362104863661e+01 2.212077014004794340e-02 2.809304433764861584e-03
1.600000000000000033e-02 1.509117352747679952e+01 3.559566804390756900e-02 3.132325055719984222e-03
2.206999999999999934e-02 2.083310616724802244e+01 5.457322122755020599e-02 3.477840948757840792e-03
2.947999999999999926e-02 2.785007348564149154e+01 8.049103664263126956e-02 3.909302116317729670e-03
4.268000000000000266e-02 4.036707211535221518e+01 1.353887601042819133e-01 4.862066536253286525e-03
6.219999999999999835e-02 5.891246509830522626e+01 2.419691225623893105e-01 6.630786177272363080e-03
7.316999999999999893e-02 6.935151695866235855e+01 3.161896974764099033e-01 7.588671314871411888e-03
7.595999999999999974e-02 7.200836722020332559e+01 3.371250777904805096e-01 8.170805199905810390e-03
7.685877551020407761e-02 7.286441678721158155e+01 3.442039204909381200e-01 8.367581169449002376e-03
7.775755102040816935e-02 7.372055011580710016e+01 3.514511598500315581e-01 8.562576005433886542e-03
7.865632653061224722e-02 7.457676817630736821e+01 3.588654072269317208e-01 8.756012025542891236e-03
7.955510204081632508e-02 7.543307190206709834e+01 3.664454641662713286e-01 8.948111547458462156e-03
8.045387755102040295e-02 7.628946219288015129e+01 3.741903224679198892e-01 9.139096888863034590e-03
8.135265306122449469e-02 7.714593991823068109e+01 3.820991642611347716e-01 9.329190367439050766e-03
8.225142857142857256e-02 7.800250592040063680e+01 3.901713620827891860e-01 9.518614300868940767e-03
8.315020408163265042e-02 7.885916101744351181e+01 3.984064789594163325e-01 9.707591006835148556e-03
8.404897959183672829e-02 7.971590600602901588e+01 4.068042684928346864e-01 9.896342803020107687e-03
8.494775510204082003e-02 8.057274166416803496e+01 4.153646749491552437e-01 1.008509200710626386e-02
8.584653061224489790e-02 8.142966875382285252e+01 4.240878333509936482e-01 1.027406093677604541e-02
8.674530612244897576e-02 8.228668802340898480e+01 4.329740695727409272e-01 1.046347190971189459e-02
8.764408163265305363e-02 8.314380021019421463e+01 4.420239004387642723e-01 1.065354724359625360e-02
8.854285714285714537e-02 8.400100604260059356e+01 4.512380338244380007e-01 1.084450925611155775e-02
8.944163265306122323e-02 8.485830624241383191e+01 4.606173687599202093e-01 1.103658026494023885e-02
9.034040816326530110e-02 8.571570152690460986e+01 4.701629955366159463e-01 1.122998258776474086e-02
9.123918367346939284e-02 8.657319261086729512e+01 4.798761958162792163e-01 1.142493854226750254e-02
9.213795918367347071e-02 8.743078020857818444e+01 4.897584427427286169e-01 1.162167044613096091e-02
9.303673469387754857e-02 8.828846503568011883e+01 4.998114010561670040e-01 1.182040061703754953e-02
9.393551020408162644e-02 8.914624781099374218e+01 5.100369272101067386e-01 1.202135137266971236e-02
9.483428571428570431e-02 9.000412925826140054e+01 5.204370694909207229e-01 1.222474503070988122e-02
9.573306122448979605e-02 9.086211010782623987e+01 5.310140681400510321e-01 1.243080390884050354e-02
9.663183673469387391e-02 9.172019109824883287e+01 5.417703554789182752e-01 1.263975032474400767e-02
9.753061224489795178e-02 9.257837297786505815e+01 5.527085560365897488e-01 1.285180659610283757e-02
9.842938775510204352e-02 9.343665650628811647e+01 5.638314866802721648e-01 1.306719504059943027e-02
9.932816326530612139e-02 9.429504245585611955e+01 5.751421567487062791e-01 1.328613797591622105e-02
1.002269387755101993e-01 9.515353161302914486e+01 5.866437681885546818e-01 1.350885771973564693e-02
1.011257142857142910e-01 9.601212477973740533e+01 5.983397156938753403e-01 1.373557658974015015e-02
1.020244897959183689e-01 9.687082277468202562e+01 6.102335868487893666e-01 1.396651690361216946e-02
1.029232653061224467e-01 9.772962643459220544e+01 6.223291622734589135e-01 1.420190097903413495e-02
1.038220408163265246e-01 9.858853661543921021e+01 6.346304157734933282e-01 1.444195113368849578e-02
1.047208163265306025e-01 9.944755419360942028e+01 6.471415144929180130e-01 1.468688968525767857e-02
1.056195918367346942e-01 1.003066800670392382e+02 6.598668190708397718e-01 1.493693895142413249e-02
1.065183673469387721e-01 1.011659151563117831e+02 6.728108838019535298e-01 1.519232124987028414e-02
1.074171428571428499e-01 1.020252604057186119e+02 6.859784568010428574e-01 1.545325889827857922e-02
1.083159183673469417e-01 1.028847167842870931e+02 6.993744801716261783e-01 1.571997421433145997e-02
1.092146938775510195e-01 1.037442852867746268e+02 7.130040901789139740e-01 1.599268951571134953e-02
1.101134693877550974e-01 1.046039669346327656e+02 7.268726174272460705e-01 1.627162712010069706e-02
1.110122448979591891e-01 1.054637627769398023e+02 7.409855870421778734e-01 1.655700934518194306e-02
1.119110204081632531e-01 1.063236738913057451e+02 7.553487188573958511e-01 1.684905850863750720e-02
1.128097959183673449e-01 1.071837013847495825e+02 7.699679276066484501e-01 1.714799692814985427e-02
1.137085714285714227e-01 1.080438463945496181e+02 7.848493231208716336e-01 1.745404692140140046e-02
1.146073469387755006e-01 1.089041100890689791e+02 7.999992105307111023e-01 1.776743080607459668e-02
1.155061224489795924e-01 1.097644936685568808e+02 8.154240904746291596e-01 1.808837089985187996e-02
1.164048979591836702e-01 1.106249983659259755e+02 8.311306593128000575e-01 1.841708952041567343e-02
1.173036734693877481e-01 1.114856254475080988e+02 8.471258093469992145e-01 1.875380898544843494e-02
1.182024489795918398e-01 1.123463762137884174e+02 8.634166290466902538e-01 1.909875161263259458e-02
1.191012244897959177e-01 1.132072520001185438e+02 8.800104032815232458e-01 1.945213971965058242e-02
1.199999999999999956e-01 1.140682541774100258e+02 8.969146135604613157e-01 1.981419562418484590e-02
1.233574950893481237e-01 1.172857934530660202e+02 9.629286003622476997e-01 2.121928619904065935e-02
1.267149901786962518e-01 1.205051911852706041e+02 1.033505246127798038e+00 2.262497532966274705e-02
1.300724852680443799e-01 1.237265190772228038e+02 1.108647034452840074e+00 2.402732812317065481e-02
1.334299803573925081e-01 1.269498450350371428e+02 1.188344046839844514e+00 2.542246013886504882e-02
1.367874754467406362e-01 1.301752331436363477e+02 1.272574070744855401e+00 2.680653741660392331e-02
1.401449705360887643e-01 1.334027436476368962e+02 1.361302705607724928e+00 2.817577631388700973e-02
1.435024656254368924e-01 1.366324329365807557e+02 1.454483466648918144e+00 2.952644317278382141e-02
1.468599607147850483e-01 1.398643535339487585e+02 1.552057886269746279e+00 3.085485383627102618e-02
1.502174558041331764e-01 1.430985540894678820e+02 1.653955612941726994e+00 3.215737303213267451e-02
1.535749508934813046e-01 1.463350793742873179e+02 1.760094507515390427e+00 3.343041364129329535e-02
1.569324459828294327e-01 1.495739702786520127e+02 1.870380736919639686e+00 3.467043586627256702e-02
1.602899410721775608e-01 1.528152638117525157e+02 1.984708865260245814e+00 3.587394631435319309e-02
1.636474361615256889e-01 1.560589931034673441e+02 2.102961942360405345e+00 3.703749700902660841e-02
1.670049312508738171e-01 1.593051874077524701e+02 2.225011589817862845e+00 3.815768434231280037e-02
1.703624263402219452e-01 1.625538721074640875e+02 2.350718084682068110e+00 3.923114797963368067e-02
1.737199214295700733e-01 1.658050687204266467e+02 2.479930440881415343e+00 4.025456972804648814e-02
1.770774165189182014e-01 1.690587949065852911e+02 2.612486488554917496e+00 4.122467237781232002e-02
1.804349116082663573e-01 1.723150644761003321e+02 2.748212951464882536e+00 4.213821852648004518e-02
1.837924066976144855e-01 1.755738873982626274e+02 2.886925522687334489e+00 4.299200939390471904e-02
1.871499017869626136e-01 1.788352698111261248e+02 3.028428938795250325e+00 4.378288363589410981e-02
1.905073968763107417e-01 1.820992140317673602e+02 3.172517052766126611e+00 4.450771616347908716e-02
1.938648919656588698e-01 1.853657185670973320e+02 3.318972905860178013e+00 4.516341697414086309e-02
1.972223870550069980e-01 1.886347781251598974e+02 3.467568798728560164e+00 4.574693000069093157e-02
2.005798821443551261e-01 1.919063836268692569e+02 3.618066362022510862e+00 4.625523198289469007e-02
2.039373772337032542e-01 1.951805222181373836e+02 3.770216626784300029e+00 4.668533136635117514e-02
2.072948723230513823e-01 1.984571772823643130e+02 3.923760094909388041e+00 4.703426723259135356e-02
2.106523674123995105e-01 2.017363284532609669e+02 4.078426809976301470e+00 4.729910826383752070e-02
2.140098625017476386e-01 2.050179516279883103e+02 4.233936428746428504e+00 4.747695174534574680e-02
2.173673575910957667e-01 2.083020189806016162e+02 4.389998293640434035e+00 4.756492260786135406e-02
2.207248526804438948e-01 2.115884989757902872e+02 4.546311506501032440e+00 4.756017251211103192e-02
2.240823477697920230e-01 2.148773563829184639e+02 4.702565003953767864e+00 4.745987897702810127e-02
2.274398428591401511e-01 2.181685522903637775e+02 4.858437634678192119e+00 4.726124455284723413e-02
2.307973379484882792e-01 2.214620441201678034e+02 5.013598238901266768e+00 4.696149603990119187e-02
2.341548330378364073e-01 2.247577856430075656e+02 5.167705730423207022e+00 4.655788375356763320e-02
2.375123281271845355e-01 2.280557269935036402e+02 5.320409181483216621e+00 4.604768083547123442e-02
2.408698232165326913e-01 2.313558146858860596e+02 5.471347910768695755e+00 4.542818261071925739e-02
2.442273183058808195e-01 2.346579916300337914e+02 5.620151574866546262e+00 4.469670599063522987e-02
2.475848133952289476e-01 2.379621971479169531e+02 5.766440263449208459e+00 4.385058892015549631e-02
2.509423084845771035e-01 2.412683669904640738e+02 5.909824598480942548e+00 4.288718986876795952e-02
2.542998035739252316e-01 2.445764333548829939e+02 6.049905837721784252e+00 4.180388736359381963e-02
2.576572986632733597e-01 2.478863249024606148e+02 6.186275982797458717e+00 4.059807956294903680e-02
2.610147937526214879e-01 2.511979667768785021e+02 6.318517892093281851e+00 3.926718386846044656e-02
2.643722888419696160e-01 2.545112806230663693e+02 6.446205398718935164e+00 3.780863657356242635e-02
2.677297839313177441e-01 2.578261846066324097e+02 6.568903433778692680e+00 3.621989254595202323e-02
2.710872790206658722e-01 2.611425934338979005e+02 6.686168155168443761e+00 3.449842494133933263e-02
2.744447741100140004e-01 2.644604183725691087e+02 6.797547082106532024e+00 3.264172494559166443e-02
2.778022691993621285e-01 2.677795672730824208e+02 6.902579235590128093e+00 3.064730154213513719e-02
2.811597642887102566e-01 2.710999445906475103e+02 7.000795284952497255e+00 2.851268130124313613e-02
2.845172593780583847e-01 2.744214514080298386e+02 7.091717700679176950e+00 2.623540818760974544e-02
3.603434377580980175e-01 3.511669992226604791e+02 2.487614550307970518e+01 4.246253250899835185e-01
4.361696161381376502e-01 4.340900662595548170e+02 6.754469586428916728e+01 5.932616303732071161e-01
5.119957945181772274e-01 5.254598160036655372e+02 1.150624922697755466e+02 4.564477246474438754e-01
5.878219728982169157e-01 6.234109451038316365e+02 1.584267465083207753e+02 4.306205432151620771e-01
6.636481512782566039e-01 7.270711325854654206e+02 2.047240568738677098e+02 4.618016505960814144e-01
7.394743296582961811e-01 8.363517087920640734e+02 2.569399937209979612e+02 4.929827579770006962e-01
8.153005080383358694e-01 9.512930329201196855e+02 3.150902853820112455e+02 5.182079625984423732e-01
8.911266864183754466e-01 1.071867993308012956e+03 3.770496147407720287e+02 5.100613097367904247e-01
9.669528647984150238e-01 1.197794192233536705e+03 4.407374832631000459e+02 5.019146568751385873e-01
1.042779043178454712e+00 1.328777873363419076e+03 5.059199693165033977e+02 4.937680040134866388e-01
1.118605221558494289e+00 1.464551800631371407e+03 5.723834254280093319e+02 4.856213511518347459e-01
1.194431399938534089e+00 1.604871127179093492e+03 6.399315949350894925e+02 4.774746982901827974e-01
1.270257578318573444e+00 1.749510152934516100e+03 7.083833272158993850e+02 4.693280454285309600e-01
1.346083756698613243e+00 1.898259735574097249e+03 7.775707351203660664e+02 4.611813925668790115e-01
1.421909935078653042e+00 2.050925192031896131e+03 8.473376861290448687e+02 4.530347397052271186e-01
1.497736113458692397e+00 2.207324575081330750e+03 9.175385501091727747e+02 4.448880868435752256e-01
1.573562291838732197e+00 2.367287241347122290e+03 9.880371476233142403e+02 4.367414339819233327e-01
1.649388470218771552e+00 2.530652649015459247e+03 1.058705857282591523e+03 4.285947811202714397e-01
1.725214648598811351e+00 2.697269338914803484e+03 1.129424850876641131e+03 4.204481282586195467e-01
1.801040826978851150e+00 2.866994063676105725e+03 1.200081432365938326e+03 4.123014753969675983e-01
1.876867005358890506e+00 3.039693103789404176e+03 1.270737362772414144e+03 4.060671917657223684e-01
1.952693183738930305e+00 3.215257873921739701e+03 1.342212768162171187e+03 4.081790315791677393e-01
2.028519362118970104e+00 3.393627942261428871e+03 1.415207095728223067e+03 4.102908713926131101e-01
2.104345540499009459e+00 3.574755052020514995e+03 1.489712331020909232e+03 4.124027112060584810e-01
