# density  energy_density  pressure   sound_speed_squared  [All in nuclear units]
2.720000000000000022e-14 2.529924618736292620e-11 1.061056609100270887e-19 3.766610435412189122e-08
1.269999999999999890e-13 1.181251617980081254e-10 4.870113551826584858e-18 6.497781477172163475e-08
6.929999999999999754e-13 6.445728594625782745e-10 1.018299070687946017e-16 3.033770597342807186e-07
6.295000000000000137e-12 5.855111460395753757e-09 5.487150723824490656e-15 1.763710043904196507e-06
1.581000000000000150e-11 1.470523320212576141e-08 2.904239460150760759e-14 3.559434472327477622e-06
3.971999999999999958e-11 3.694456170323160790e-08 1.439340266754906811e-13 6.772854871245677111e-06
9.975999999999999982e-11 9.278976412613005154e-08 6.812143616221268841e-13 1.246890511177539320e-05
2.505999999999999928e-10 2.330928829758143313e-07 3.107749196951638608e-12 2.212095130576091967e-05
6.294000000000000186e-10 5.854398883216247602e-07 1.363250409771533549e-11 3.761981047239428883e-05
1.581000000000000021e-09 1.470619631082054101e-06 5.726014178088476303e-11 6.095350986710739404e-05
3.971999999999999932e-09 3.694861084648016046e-06 2.210019573374265380e-10 8.628023653304385055e-05
5.000000000000000105e-09 4.651201787816927976e-06 3.071485916280120014e-10 9.387863480799757518e-05
9.975999999999999465e-09 9.280587964640925786e-06 8.385361004129998845e-10 1.356922228656245837e-04
1.989999999999999952e-08 1.851419242998081003e-05 2.287763168863418088e-09 1.782101978513718314e-04
3.972999999999999908e-08 3.696699295748789187e-05 6.061583099087538954e-09 2.308134738384234820e-04
7.925999999999999637e-08 7.375765469301719828e-05 1.575347858094044765e-08 2.960532096713864875e-04
1.580999999999999930e-07 1.471491184379128891e-04 3.910429618672550719e-08 3.402859755131850544e-04
1.991000000000000027e-07 1.853209783927820692e-04 5.252045687899177454e-08 3.626488188833278743e-04
3.155999999999999938e-07 2.938002528823880299e-04 9.730770378831954314e-08 4.630767356912104081e-04
5.000999999999999849e-07 4.656344063839075714e-04 1.837494945860225819e-07 5.430301232045120323e-04
6.295999999999999732e-07 5.862651417037388971e-04 2.503103884558263872e-07 5.605192962670089638e-04
9.666999999999999941e-07 9.003386739730535665e-04 4.324450868778576936e-07 5.993081670211623108e-04
1.531999999999999901e-06 1.427170885631398036e-03 7.780217275717420968e-07 7.125938556504039095e-04
2.506999999999999883e-06 2.336134972129507662e-03 1.471005394641589826e-06 8.121876172121876309e-04
3.974000000000000407e-06 3.704315759716615697e-03 2.695705763844323844e-06 9.780674166779417152e-04
4.830000000000000343e-06 4.502887798316278223e-03 3.503988717694660908e-06 1.046253037768318664e-03
6.080999999999999885e-06 5.670217999231269741e-03 4.731126407333307547e-06 1.056224360839501646e-03
7.930000000000000308e-06 7.396012414119570652e-03 6.599662989063778187e-06 1.109203753630785610e-03
9.982000000000000313e-06 9.311815711689977113e-03 8.879881089227186733e-06 1.271216815433141075e-03
1.256999999999999993e-05 1.172874412604260098e-02 1.207676739913533738e-05 1.374195438212825332e-03
1.521999999999999997e-05 1.420427250933824909e-02 1.547541302213394990e-05 1.371610497379100249e-03
1.991000000000000080e-05 1.858690797761085312e-02 2.160710455847765458e-05 1.426578142835871997e-03
2.506999999999999883e-05 2.341050104039446925e-02 2.908031724375689851e-05 1.672007475975408053e-03
2.790999999999999875e-05 2.606604784714952258e-02 3.357009132255487721e-05 1.709425557744154774e-03
3.806999999999999973e-05 3.556967988784798945e-02 4.986781576435106434e-05 1.720407281314112165e-03
5.063000000000000145e-05 4.732434580343149871e-02 7.073400252905581275e-05 1.829889149838781265e-03
6.592000000000000583e-05 6.164112392498975052e-02 9.765037643900635188e-05 1.930242980462695823e-03
8.433000000000000066e-05 7.888776783401378612e-02 1.317235490470395893e-04 2.021055815200022837e-03
1.062000000000000064e-04 9.938561165478684845e-02 1.740088341640037047e-04 2.104789529260958983e-03
1.321000000000000126e-04 1.236720406455826121e-01 2.260189757651373944e-04 2.178291718403657477e-03
1.623999999999999901e-04 1.520974545104751274e-01 2.888169908545388338e-04 2.240170365918073281e-03
1.689999999999999879e-04 1.582907717069566844e-01 3.027354772999506964e-04 2.254509350360745651e-03
1.758999999999999930e-04 1.647661861691531171e-01 3.173785841705756782e-04 2.268169273277113179e-03
1.830000000000000029e-04 1.714298948183871907e-01 3.325196584577469103e-04 2.276170334580628063e-03
1.901999999999999882e-04 1.781880600978280049e-01 3.479577791899843742e-04 2.292561569242367037e-03
1.977000000000000079e-04 1.852284385240466902e-01 3.641242634600037713e-04 2.299943765467868384e-03
2.054000000000000053e-04 1.924572004474696396e-01 3.808304060475003897e-04 2.322187632288155723e-03
2.079000000000000119e-04 1.948043378760714872e-01 3.864137987380476553e-04 2.435429768083530178e-03
2.081999999999999921e-04 1.950859988578999005e-01 3.870314100985603909e-04 1.950065624557156818e-03
2.090999999999999868e-04 1.959309855029948977e-01 3.881261957135444685e-04 6.411875526909013856e-04
2.159999999999999919e-04 2.024093317906446865e-01 3.940874488768042125e-04 1.199166870571831411e-03
2.231000000000000019e-04 2.090756740932291913e-01 4.013938420547467825e-04 9.928616047829054436e-04
2.311000000000000066e-04 2.165873044433437034e-01 4.085241694843774404e-04 9.056166966301716637e-04
2.401000000000000085e-04 2.250381721984245909e-01 4.159700687886608468e-04 8.565463878902855599e-04
2.500000000000000052e-04 2.343344406330727658e-01 4.237602369176299592e-04 8.194318812157330018e-04
2.642999999999999733e-04 2.477629128650125634e-01 4.345596643180389446e-04 7.890063723638815647e-04
3.052999999999999941e-04 2.862671839140227270e-01 4.644058706720978241e-04 7.612775562167708662e-04
3.533000000000000224e-04 3.313503829113090826e-01 4.987577676308450197e-04 7.626578558207241024e-04
4.075999999999999871e-04 3.823564017794535141e-01 5.381334366106255759e-04 7.813048116943254948e-04
4.679999999999999915e-04 4.390986251953180042e-01 5.832692638200615834e-04 8.096035963157804938e-04
5.341000000000000261e-04 5.012024644415256081e-01 6.346556894078133086e-04 8.452514814113673558e-04
6.059000000000000366e-04 5.686690698184251325e-01 6.930641302632923034e-04 8.862253587289389486e-04
7.661000000000000275e-04 7.192254882508629654e-01 8.328184776562496576e-04 9.702780530519144065e-04
1.262000000000000101e-03 1.185459127778160093e+00 1.338484980802662205e-03 1.198863597978450275e-03
1.894999999999999983e-03 1.780909071169781921e+00 2.123481960401060308e-03 1.437771491635827115e-03
2.673000000000000029e-03 2.513147344746868850e+00 3.261860252001994032e-03 1.671524566936786766e-03
3.605999999999999830e-03 3.391736073717691369e+00 4.828136641022434151e-03 1.893900408978071038e-03
4.709999999999999777e-03 4.431905410739045870e+00 6.903512974832482635e-03 2.096551352830673849e-03
7.496000000000000059e-03 7.058993649504918366e+00 1.289742191321638018e-02 2.466596387205546859e-03
1.119999999999999989e-02 1.055540362104863661e+01 2.212077014004794340e-02 2.809304433764861584e-03
1.600000000000000033e-02 1.509117352747679952e+01 3.559566804390756900e-02 3.132325055719984222e-03
2.206999999999999934e-02 2.083310616724802244e+01 5.457322122755020599e-02 3.477840948757840792e-03
2.947999999999999926e-02 2.785007348564149154e+01 8.049103664263126956e-02 3.909302116317729670e-03
4.268000000000000266e-02 4.036707211535221518e+01 1.353887601042819133e-01 4.862066536253286525e-03
6.219999999999999835e-02 5.891246509830522626e+01 2.419691225623893105e-01 6.630786177272363080e-03
7.316999999999999893e-02 6.935151695866235855e+01 3.161896974764099033e-01 7.588671314871411888e-03
7.595999999999999974e-02 7.200836722020332559e+01 3.371250777904805096e-01 8.170805199905812125e-03
7.685877551020407761e-02 7.286441688854024790e+01 3.442212615068913628e-01 8.408091246001326430e-03
7.775755102040816935e-02 7.372055078821077245e+01 3.515317827075126744e-01 8.669882880367671407e-03
7.865632653061224722e-02 7.457677054165459651e+01 3.590772312737591232e-01 8.955132261669386876e-03
7.955510204081632508e-02 7.543307796446373459e+01 3.668773090814472781e-01 9.262791548571043879e-03
8.045387755102040295e-02 7.628947504880262898e+01 3.749508299498203745e-01 9.591812899737194378e-03
8.135265306122449469e-02 7.714596394756864584e+01 3.833157195930007033e-01 9.941148473832402480e-03
8.225142857142857256e-02 7.800254695925208637e+01 3.919890155660734066e-01 1.030975042952120974e-02
8.315020408163265042e-02 7.885922651345728696e+01 4.009868671988289224e-01 1.069657092546818199e-02
8.404897959183672829e-02 7.971600515704923851e+01 4.103245355109472747e-01 1.110056212033787987e-02
8.494775510204082003e-02 8.057288554089095101e+01 4.200163931031217213e-01 1.152067617279486228e-02
8.584653061224489790e-02 8.142987040714209002e+01 4.300759240192740807e-01 1.195586524150367251e-02
8.674530612244897576e-02 8.228696257708678274e+01 4.405157235756340661e-01 1.240508148512887640e-02
8.764408163265305363e-02 8.314416493946421838e+01 4.513474981530228858e-01 1.286727706233503458e-02
8.854285714285714537e-02 8.400148043927657682e+01 4.625820649492218273e-01 1.334140413178670770e-02
8.944163265306122323e-02 8.485891206704702938e+01 4.742293516888038685e-01 1.382641485214843383e-02
9.034040816326530110e-02 8.571646284850781683e+01 4.862983962882777011e-01 1.432126138208478575e-02
9.123918367346939284e-02 8.657413583469431728e+01 4.987973464748261532e-01 1.482489588026032062e-02
9.213795918367347071e-02 8.743193409242580572e+01 5.117334593573362733e-01 1.533627050533958348e-02
9.303673469387754857e-02 8.828986069515310930e+01 5.251131009488024803e-01 1.585433741598714363e-02
9.393551020408162644e-02 8.914791871415509661e+01 5.389417456395411143e-01 1.637804877086755304e-02
9.483428571428570431e-02 9.000611121006699022e+01 5.532239756209984538e-01 1.690635672864536712e-02
9.573306122448979605e-02 9.086444122472374829e+01 5.679634802602508969e-01 1.743821344798515346e-02
9.663183673469387391e-02 9.172291177330389189e+01 5.831630554255945453e-01 1.797257108755145535e-02
9.753061224489795178e-02 9.258152583675945380e+01 5.988246027639080316e-01 1.850838180600883690e-02
9.842938775510204352e-02 9.344028635451736875e+01 6.149491289307322806e-01 1.904459776202185872e-02
9.932816326530612139e-02 9.429919621744087976e+01 6.315367447742668006e-01 1.958017111425506759e-02
1.002269387755101993e-01 9.515825826103757379e+01 6.485866644747193543e-01 2.011405402137302414e-02
1.011257142857142910e-01 9.601747525890368706e+01 6.660972046406652414e-01 2.064519864204029942e-02
1.020244897959183689e-01 9.687684991639234511e+01 6.840657833642873609e-01 2.117255713492141936e-02
1.029232653061224467e-01 9.773638486449792140e+01 7.024889192375726177e-01 2.169508165868096888e-02
1.038220408163265246e-01 9.859608265394354021e+01 7.213622303317204221e-01 2.221172437198349822e-02
1.047208163265306025e-01 9.945594574946541400e+01 7.406804331422098819e-01 2.272143743349355760e-02
1.056195918367346942e-01 1.003159765242840393e+02 7.604373415021368210e-01 2.322317300187572153e-02
1.065183673469387721e-01 1.011761772547539096e+02 7.806258654665955143e-01 2.371588323579452290e-02
1.074171428571428499e-01 1.020365501151846530e+02 8.012380101710393498e-01 2.419852029391453274e-02
1.083159183673469417e-01 1.028970971728252266e+02 8.222648746666929576e-01 2.467003633490031170e-02
1.092146938775510195e-01 1.037578203830058072e+02 8.436966507362355649e-01 2.512938351741640652e-02
1.101134693877550974e-01 1.046187215844287408e+02 8.655226216931105609e-01 2.557551400012737439e-02
1.110122448979591891e-01 1.054798024946041153e+02 8.877311611679340464e-01 2.600737994169778286e-02
1.119110204081632531e-01 1.063410647054227525e+02 9.103097318856053777e-01 2.642393350079217870e-02
1.128097959183673449e-01 1.072025096788622136e+02 9.332448844368429475e-01 2.682412683607512602e-02
1.137085714285714227e-01 1.080641387428189688e+02 9.565222560479588187e-01 2.720691210621117850e-02
1.146073469387755006e-01 1.089259530870634052e+02 9.801265693528247169e-01 2.757124146986488986e-02
1.155061224489795924e-01 1.097879537593117476e+02 1.004041631171051385e+00 2.791606708570083112e-02
1.164048979591836702e-01 1.106501416614107285e+02 1.028250331296520992e+00 2.824034111238354558e-02
1.173036734693877481e-01 1.115125175456306721e+02 1.052734641300503426e+00 2.854301570857758694e-02
1.182024489795918398e-01 1.123750820110636965e+02 1.077475613353664929e+00 2.882304303294752623e-02
1.191012244897959177e-01 1.132378355001216335e+02 1.102453379071377748e+00 2.907937524415791716e-02
1.199999999999999956e-01 1.141007782951319598e+02 1.127647148386816900e+00 2.931096450087330649e-02
1.214825326166504293e-01 1.155246189862373001e+02 1.169624746643952884e+00 2.965289107060664620e-02
1.229650652333008631e-01 1.169489750454175265e+02 1.212108485043648765e+00 3.000032211864825382e-02
1.244475978499512830e-01 1.183738464109284365e+02 1.255106616902592620e+00 3.035333725788524895e-02
1.259301304666017307e-01 1.197992331215448303e+02 1.298627516863071207e+00 3.071201086962056792e-02
1.274126630832521367e-01 1.212251353143958141e+02 1.342679673655161388e+00 3.107641208507914976e-02
1.288951956999025705e-01 1.226515532228167444e+02 1.387271682821172414e+00 3.144660476669156740e-02
1.303777283165530043e-01 1.240784871742162494e+02 1.432412239401854803e+00 3.182264748913508218e-02
1.318602609332034381e-01 1.255059375879565664e+02 1.478110130583891513e+00 3.220459352011095788e-02
1.333427935498538719e-01 1.269339049732462286e+02 1.524374228308095658e+00 3.259249080083836264e-02
1.348253261665043057e-01 1.283623899270450579e+02 1.571213481837729242e+00 3.298638192627128402e-02
1.363078587831547395e-01 1.297913931319774008e+02 1.618636910286204156e+00 3.338630412485747712e-02
1.377903913998051455e-01 1.312209153542568174e+02 1.666653595103557706e+00 3.379228923823099362e-02
1.392729240164555793e-01 1.326509574416178907e+02 1.715272672520953723e+00 3.420436370027041956e-02
1.407554566331060131e-01 1.340815203212552547e+02 1.764503325952303747e+00 3.462254851592159316e-02
1.422379892497564469e-01 1.355126049977699552e+02 1.814354778352263331e+00 3.504685923960152577e-02
1.437205218664068807e-01 1.369442125511209269e+02 1.864836284529695076e+00 3.547730595319651542e-02
1.452030544830573144e-01 1.383763441345815863e+02 1.915957123415681362e+00 3.591389324363994384e-02
1.466855870997077482e-01 1.398090009727012557e+02 1.967726590285130417e+00 3.635662018005605262e-02
1.481681197163581820e-01 1.412421843592692881e+02 2.020153988930983857e+00 3.680548029045648678e-02
1.496506523330086158e-01 1.426758956552827442e+02 2.073248623789996525e+00 3.726046153797747673e-02
1.511331849496590218e-01 1.441101362869162585e+02 2.127019792019026578e+00 3.772154629664591086e-02
1.526157175663094556e-01 1.455449077434931837e+02 2.181476775520741374e+00 3.818871132665053320e-02
1.540982501829598894e-01 1.469802115754585827e+02 2.236628832917638032e+00 3.866192774918501135e-02
1.555807827996103232e-01 1.484160493923517095e+02 2.292485191473196071e+00 3.914116102065620661e-02
1.570633154162607570e-01 1.498524228607799103e+02 2.349055038958971942e+00 3.962637090651557198e-02
1.585458480329111908e-01 1.512893337023909908e+02 2.406347515466481291e+00 4.011751145450057759e-02
1.600283806495615968e-01 1.527267836918446164e+02 2.464371705162595738e+00 4.061453096736118706e-02
1.615109132662120306e-01 1.541647746547827751e+02 2.523136627987218272e+00 4.111737197504888169e-02
1.629934458828624644e-01 1.556033084657976531e+02 2.582651231291940519e+00 4.162597120636118281e-02
1.644759784995128982e-01 1.570423870463983178e+02 2.642924381418407354e+00 4.214025956003432383e-02
1.659585111161633320e-01 1.584820123629724549e+02 2.703964855215051255e+00 4.266016207527756343e-02
1.674410437328137657e-01 1.599221864247469114e+02 2.765781331490867245e+00 4.318559790174262419e-02
1.689235763494641995e-01 1.613629112817436351e+02 2.828382382404871720e+00 4.371648026892248351e-02
1.704061089661146333e-01 1.628041890227311512e+02 2.891776464789871604e+00 4.425271645497370204e-02
1.718886415827650671e-01 1.642460217731726004e+02 2.955971911409157826e+00 4.479420775495760593e-02
1.733711741994155009e-01 1.656884116931678079e+02 3.020976922144722021e+00 4.534084944849432752e-02
1.748537068160659347e-01 1.671313609753907201e+02 3.086799555115580240e+00 4.589253076682617977e-02
1.763362394327163407e-01 1.685748718430205884e+02 3.153447717724777721e+00 4.644913485928547914e-02
1.778187720493667745e-01 1.700189465476685484e+02 3.220929157633644291e+00 4.701053875916293839e-02
1.793013046660172083e-01 1.714635873672958724e+02 3.289251453661837132e+00 4.757661334897333311e-02
1.807838372826676421e-01 1.729087966041265076e+02 3.358422006611736954e+00 4.814722332511448682e-02
1.822663698993180759e-01 1.743545765825533920e+02 3.428448030015724957e+00 4.872222716191776382e-02
1.837489025159684819e-01 1.758009296470351330e+02 3.499336540804872442e+00 4.930147707508606564e-02
1.852314351326189157e-01 1.772478581599872598e+02 3.571094349897586451e+00 4.988481898451891522e-02
1.867139677492693495e-01 1.786953644996636967e+02 3.643728052706710407e+00 5.047209247652109654e-02
1.881965003659197833e-01 1.801434510580306778e+02 3.717244019563638702e+00 5.106313076539502338e-02
1.896790329825702170e-01 1.815921202386317077e+02 3.791648386057947295e+00 5.165776065441526205e-02
1.911615655992206508e-01 1.830413744544430301e+02 3.866947043291078412e+00 5.225580249618484024e-02
1.926440982158710846e-01 1.844912161257200296e+02 3.943145628042605821e+00 5.285707015237416095e-02
2.703452390686084117e-01 2.619746266336460394e+02 1.281291127263756202e+01 1.737476159510733531e-01
3.480463799213457388e-01 3.433096283402388167e+02 3.201813943638405391e+01 2.946381617497725869e-01
4.257475207740830658e-01 4.301122555436123776e+02 6.306249290980059641e+01 4.155287075484718207e-01
5.034486616268203374e-01 5.236349804897623699e+02 1.060292242716348312e+02 4.994083579846859133e-01
5.811498024795577200e-01 6.244763592242677532e+02 1.559518384687589219e+02 4.917549462518219783e-01
6.588509433322951026e-01 7.321809190353583290e+02 2.084595710017049441e+02 4.841015345189580987e-01
7.365520841850323741e-01 8.462207617688998198e+02 2.631918163919432914e+02 4.764481227860942192e-01
8.142532250377696457e-01 9.661443569086472962e+02 3.198368446809899410e+02 4.687947110532303396e-01
8.919543658905069172e-01 1.091453148725862775e+03 3.740842790369854924e+02 3.992082941141552044e-01
9.696555067432444108e-01 1.221150138289344113e+03 4.199922546707292099e+02 3.106236390187557261e-01
1.047356647595981682e+00 1.354099927842831221e+03 4.553201125877098434e+02 2.220389839233565532e-01
1.125057788448718954e+00 1.489351554830300756e+03 4.828364309854074463e+02 1.852086048263608953e-01
1.202758929301456226e+00 1.626349798408778270e+03 5.058650250479884107e+02 1.512229673750663250e-01
1.280460070154193719e+00 1.764693050961237986e+03 5.244228596698699221e+02 1.172373299237716576e-01
1.358161211006930991e+00 1.904024026862380197e+03 5.383819330580136011e+02 8.325169247247710125e-02
1.435862351859668262e+00 2.044020181965642223e+03 5.476530878691124826e+02 4.926605502118253099e-02
1.513563492712405534e+00 2.184817658026576737e+03 5.711385660400674169e+02 2.831576869864257939e-01
1.591264633565142805e+00 2.327636543931933375e+03 6.341896101454772179e+02 5.949202084713299810e-01
1.668965774417880299e+00 2.474424431161022767e+03 7.300054124657448256e+02 7.077767951392218704e-01
1.746666915270617570e+00 2.626058984199443330e+03 8.368553865220203534e+02 7.017823504085255459e-01
1.824368056123354842e+00 2.782502625848321259e+03 9.461575961782709783e+02 6.957879056778291105e-01
1.902069196976092336e+00 2.943652179907931895e+03 1.057782865298951720e+03 6.897934609471326750e-01
1.979770337828829607e+00 3.109407708950897359e+03 1.171606101977097524e+03 6.837990162164363506e-01
2.057471478681566879e+00 3.279672288451221903e+03 1.287506066438576454e+03 6.778045714857399151e-01
