# density  energy_density  pressure   sound_speed_squared  [All in nuclear units]
2.720000000000000022e-14 2.529924618736292620e-11 1.061056609100270887e-19 3.766610435412189122e-08
1.269999999999999890e-13 1.181251617980081254e-10 4.870113551826584858e-18 6.497781477172163475e-08
6.929999999999999754e-13 6.445728594625782745e-10 1.018299070687946017e-16 3.033770597342807186e-07
6.295000000000000137e-12 5.855111460395753757e-09 5.487150723824490656e-15 1.763710043904196507e-06
1.581000000000000150e-11 1.470523320212576141e-08 2.904239460150760759e-14 3.559434472327477622e-06
3.971999999999999958e-11 3.694456170323160790e-08 1.439340266754906811e-13 6.772854871245677111e-06
9.975999999999999982e-11 9.278976412613005154e-08 6.812143616221268841e-13 1.246890511177539320e-05
2.505999999999999928e-10 2.330928829758143313e-07 3.107749196951638608e-12 2.212095130576091967e-05
6.294000000000000186e-10 5.854398883216247602e-07 1.363250409771533549e-11 3.761981047239428883e-05
1.581000000000000021e-09 1.470619631082054101e-06 5.726014178088476303e-11 6.095350986710739404e-05
3.971999999999999932e-09 3.694861084648016046e-06 2.210019573374265380e-10 8.628023653304385055e-05
5.000000000000000105e-09 4.651201787816927976e-06 3.071485916280120014e-10 9.387863480799757518e-05
9.975999999999999465e-09 9.280587964640925786e-06 8.385361004129998845e-10 1.356922228656245837e-04
1.989999999999999952e-08 1.851419242998081003e-05 2.287763168863418088e-09 1.782101978513718314e-04
3.972999999999999908e-08 3.696699295748789187e-05 6.061583099087538954e-09 2.308134738384234820e-04
7.925999999999999637e-08 7.375765469301719828e-05 1.575347858094044765e-08 2.960532096713864875e-04
1.580999999999999930e-07 1.471491184379128891e-04 3.910429618672550719e-08 3.402859755131850544e-04
1.991000000000000027e-07 1.853209783927820692e-04 5.252045687899177454e-08 3.626488188833278743e-04
3.155999999999999938e-07 2.938002528823880299e-04 9.730770378831954314e-08 4.630767356912104081e-04
5.000999999999999849e-07 4.656344063839075714e-04 1.837494945860225819e-07 5.430301232045120323e-04
6.295999999999999732e-07 5.862651417037388971e-04 2.503103884558263872e-07 5.605192962670089638e-04
9.666999999999999941e-07 9.003386739730535665e-04 4.324450868778576936e-07 5.993081670211623108e-04
1.531999999999999901e-06 1.427170885631398036e-03 7.780217275717420968e-07 7.125938556504039095e-04
2.506999999999999883e-06 2.336134972129507662e-03 1.471005394641589826e-06 8.121876172121876309e-04
3.974000000000000407e-06 3.704315759716615697e-03 2.695705763844323844e-06 9.780674166779417152e-04
4.830000000000000343e-06 4.502887798316278223e-03 3.503988717694660908e-06 1.046253037768318664e-03
6.080999999999999885e-06 5.670217999231269741e-03 4.731126407333307547e-06 1.056224360839501646e-03
7.930000000000000308e-06 7.396012414119570652e-03 6.599662989063778187e-06 1.109203753630785610e-03
9.982000000000000313e-06 9.311815711689977113e-03 8.879881089227186733e-06 1.271216815433141075e-03
1.256999999999999993e-05 1.172874412604260098e-02 1.207676739913533738e-05 1.374195438212825332e-03
1.521999999999999997e-05 1.420427250933824909e-02 1.547541302213394990e-05 1.371610497379100249e-03
1.991000000000000080e-05 1.858690797761085312e-02 2.160710455847765458e-05 1.426578142835871997e-03
2.506999999999999883e-05 2.341050104039446925e-02 2.908031724375689851e-05 1.672007475975408053e-03
2.790999999999999875e-05 2.606604784714952258e-02 3.357009132255487721e-05 1.709425557744154774e-03
3.806999999999999973e-05 3.556967988784798945e-02 4.986781576435106434e-05 1.720407281314112165e-03
5.063000000000000145e-05 4.732434580343149871e-02 7.073400252905581275e-05 1.829889149838781265e-03
6.592000000000000583e-05 6.164112392498975052e-02 9.765037643900635188e-05 1.930242980462695823e-03
8.433000000000000066e-05 7.888776783401378612e-02 1.317235490470395893e-04 2.021055815200022837e-03
1.062000000000000064e-04 9.938561165478684845e-02 1.740088341640037047e-04 2.104789529260958983e-03
1.321000000000000126e-04 1.236720406455826121e-01 2.260189757651373944e-04 2.178291718403657477e-03
1.623999999999999901e-04 1.520974545104751274e-01 2.888169908545388338e-04 2.240170365918073281e-03
1.689999999999999879e-04 1.582907717069566844e-01 3.027354772999506964e-04 2.254509350360745651e-03
1.758999999999999930e-04 1.647661861691531171e-01 3.173785841705756782e-04 2.268169273277113179e-03
1.830000000000000029e-04 1.714298948183871907e-01 3.325196584577469103e-04 2.276170334580628063e-03
1.901999999999999882e-04 1.781880600978280049e-01 3.479577791899843742e-04 2.292561569242367037e-03
1.977000000000000079e-04 1.852284385240466902e-01 3.641242634600037713e-04 2.299943765467868384e-03
2.054000000000000053e-04 1.924572004474696396e-01 3.808304060475003897e-04 2.322187632288155723e-03
2.079000000000000119e-04 1.948043378760714872e-01 3.864137987380476553e-04 2.435429768083530178e-03
2.081999999999999921e-04 1.950859988578999005e-01 3.870314100985603909e-04 1.950065624557156818e-03
2.090999999999999868e-04 1.959309855029948977e-01 3.881261957135444685e-04 6.411875526909013856e-04
2.159999999999999919e-04 2.024093317906446865e-01 3.940874488768042125e-04 1.199166870571831411e-03
2.231000000000000019e-04 2.090756740932291913e-01 4.013938420547467825e-04 9.928616047829054436e-04
2.311000000000000066e-04 2.165873044433437034e-01 4.085241694843774404e-04 9.056166966301716637e-04
2.401000000000000085e-04 2.250381721984245909e-01 4.159700687886608468e-04 8.565463878902855599e-04
2.500000000000000052e-04 2.343344406330727658e-01 4.237602369176299592e-04 8.194318812157330018e-04
2.642999999999999733e-04 2.477629128650125634e-01 4.345596643180389446e-04 7.890063723638815647e-04
3.052999999999999941e-04 2.862671839140227270e-01 4.644058706720978241e-04 7.612775562167708662e-04
3.533000000000000224e-04 3.313503829113090826e-01 4.987577676308450197e-04 7.626578558207241024e-04
4.075999999999999871e-04 3.823564017794535141e-01 5.381334366106255759e-04 7.813048116943254948e-04
4.679999999999999915e-04 4.390986251953180042e-01 5.832692638200615834e-04 8.096035963157804938e-04
5.341000000000000261e-04 5.012024644415256081e-01 6.346556894078133086e-04 8.452514814113673558e-04
6.059000000000000366e-04 5.686690698184251325e-01 6.930641302632923034e-04 8.862253587289389486e-04
7.661000000000000275e-04 7.192254882508629654e-01 8.328184776562496576e-04 9.702780530519144065e-04
1.262000000000000101e-03 1.185459127778160093e+00 1.338484980802662205e-03 1.198863597978450275e-03
1.894999999999999983e-03 1.780909071169781921e+00 2.123481960401060308e-03 1.437771491635827115e-03
2.673000000000000029e-03 2.513147344746868850e+00 3.261860252001994032e-03 1.671524566936786766e-03
3.605999999999999830e-03 3.391736073717691369e+00 4.828136641022434151e-03 1.893900408978071038e-03
4.709999999999999777e-03 4.431905410739045870e+00 6.903512974832482635e-03 2.096551352830673849e-03
7.496000000000000059e-03 7.058993649504918366e+00 1.289742191321638018e-02 2.466596387205546859e-03
1.119999999999999989e-02 1.055540362104863661e+01 2.212077014004794340e-02 2.809304433764861584e-03
1.600000000000000033e-02 1.509117352747679952e+01 3.559566804390756900e-02 3.132325055719984222e-03
2.206999999999999934e-02 2.083310616724802244e+01 5.457322122755020599e-02 3.477840948757840792e-03
2.947999999999999926e-02 2.785007348564149154e+01 8.049103664263126956e-02 3.909302116317729670e-03
4.268000000000000266e-02 4.036707211535221518e+01 1.353887601042819133e-01 4.862066536253286525e-03
6.219999999999999835e-02 5.891246509830522626e+01 2.419691225623893105e-01 6.630786177272363080e-03
7.316999999999999893e-02 6.935151695866235855e+01 3.161896974764099033e-01 7.588671314871411888e-03
7.595999999999999974e-02 7.200836722020332559e+01 3.371250777904805096e-01 8.170805199905813859e-03
7.685877551020407761e-02 7.286441683128403213e+01 3.442114628070750415e-01 8.385200658759557960e-03
7.775755102040816935e-02 7.372055040808413651e+01 3.514861944475897171e-01 8.609174419880277068e-03
7.865632653061224722e-02 7.457676920362905548e+01 3.589573446542563828e-01 8.842313248749259988e-03
7.955510204081632508e-02 7.543307453255579276e+01 3.666326353214743317e-01 9.084203910847830216e-03
8.045387755102040295e-02 7.628946776506913352e+01 3.745194382261700095e-01 9.334433171657286962e-03
8.135265306122449469e-02 7.714595032116709206e+01 3.826247749528656206e-01 9.592587796658936378e-03
8.225142857142857256e-02 7.800252366512108892e+01 3.909553168125230460e-01 9.858254551334086346e-03
8.315020408163265042e-02 7.885918930019633422e+01 3.995173847543442847e-01 1.013102020116403781e-02
8.404897959183672829e-02 7.971594876359922921e+01 4.083169492698062730e-01 1.041047151163010040e-02
8.494775510204082003e-02 8.057280362163999143e+01 4.173596302883096909e-01 1.069619524821358719e-02
8.584653061224489790e-02 8.142975546509914864e+01 4.266506970639052376e-01 1.098777817639579220e-02
8.674530612244897576e-02 8.228680590478654722e+01 4.361950680526485158e-01 1.128480706165802677e-02
8.764408163265305363e-02 8.314395656728318329e+01 4.459973107802067127e-01 1.158686866948160227e-02
8.854285714285714537e-02 8.400120909085617882e+01 4.560616416994180966e-01 1.189354976534782136e-02
8.944163265306122323e-02 8.485856512153853259e+01 4.663919260375682385e-01 1.220443711473798501e-02
9.034040816326530110e-02 8.571602630936435219e+01 4.769916776332149277e-01 1.251911748313340456e-02
9.123918367346939284e-02 8.657359430475266038e+01 4.878640587624478719e-01 1.283717763601539136e-02
9.213795918367347071e-02 8.743127075503139167e+01 4.990118799545280592e-01 1.315820433886524116e-02
9.303673469387754857e-02 8.828905730109629246e+01 5.104375997969053946e-01 1.348178435716426704e-02
9.393551020408162644e-02 8.914695557419541672e+01 5.221433247296561886e-01 1.380750445639377169e-02
9.483428571428570431e-02 9.000496719283592029e+01 5.341308088294342005e-01 1.413495140203506126e-02
9.573306122448979605e-02 9.086309375980579262e+01 5.464014535830695740e-01 1.446371195956945056e-02
9.663183673469387391e-02 9.172133685930467095e+01 5.589563076509894701e-01 1.479337289447823535e-02
9.753061224489795178e-02 9.257969805417971543e+01 5.717960666206765019e-01 1.512352097224272177e-02
9.842938775510204352e-02 9.343817888326113064e+01 5.849210727504112750e-01 1.545374295834422637e-02
9.932816326530612139e-02 9.429678085879211835e+01 5.983313147035853596e-01 1.578362561826404664e-02
1.002269387755101993e-01 9.515550546394993603e+01 6.120264272739011080e-01 1.611275571748348873e-02
1.011257142857142910e-01 9.601435415045284572e+01 6.260056911018022641e-01 1.644072002148386918e-02
1.020244897959183689e-01 9.687332833625033857e+01 6.402680323825120645e-01 1.676710529574647682e-02
1.029232653061224467e-01 9.773242940329113537e+01 6.548120225660830629e-01 1.709149830575262818e-02
1.038220408163265246e-01 9.859165869536751359e+01 6.696358780498837815e-01 1.741348581698363290e-02
1.047208163265306025e-01 9.945101751603084494e+01 6.847374598639774934e-01 1.773265459492079366e-02
1.056195918367346942e-01 1.003105071265764536e+02 7.001142733498683102e-01 1.804859140504541659e-02
1.065183673469387721e-01 1.011701287440937023e+02 7.157634678331120659e-01 1.836088301283880786e-02
1.074171428571428499e-01 1.020298835395801831e+02 7.316818362903141360e-01 1.866911618378226667e-02
1.083159183673469417e-01 1.028897726361147562e+02 7.478658150110492064e-01 1.897287768335711652e-02
1.092146938775510195e-01 1.037497971070898188e+02 7.643114832552628801e-01 1.927175427704464622e-02
1.101134693877550974e-01 1.046099579744977746e+02 7.810145629067338779e-01 1.956533273032616885e-02
1.110122448979591891e-01 1.054702562072717313e+02 7.979704181231855875e-01 1.985319980868299750e-02
1.119110204081632531e-01 1.063306927196757243e+02 8.151740549836590244e-01 2.013494227759641750e-02
1.128097959183673449e-01 1.071912683697452451e+02 8.326201211337768138e-01 2.041014690254776276e-02
1.137085714285714227e-01 1.080519839577736718e+02 8.503029054295287992e-01 2.067840044901832208e-02
1.146073469387755006e-01 1.089128402248438903e+02 8.682163375802464111e-01 2.093928968248940856e-02
1.155061224489795924e-01 1.097738378514035560e+02 8.863539877914249354e-01 2.119240136844232486e-02
1.164048979591836702e-01 1.106349774558815966e+02 9.047090664080795763e-01 2.143732227235837368e-02
1.173036734693877481e-01 1.114962595933446892e+02 9.232744235593308701e-01 2.167363915971886809e-02
1.182024489795918398e-01 1.123576847541924906e+02 9.420425488049223306e-01 2.190093879600511773e-02
1.191012244897959177e-01 1.132192533628892477e+02 9.610055707843899730e-01 2.211880794669841832e-02
1.199999999999999956e-01 1.140809657767320289e+02 9.801552568696153545e-01 2.232683337728008297e-02
1.227699801483491115e-01 1.167376292928248063e+02 1.040270782783294212e+00 2.292946136567550891e-02
1.255399602966982275e-01 1.193956679143176700e+02 1.102052498423951477e+00 2.355711212264213414e-02
1.283099404450473435e-01 1.220550888346254794e+02 1.165570798699263166e+00 2.421127824159242589e-02
1.310799205933964595e-01 1.247159005014381563e+02 1.230900275634970731e+00 2.489350798743197868e-02
1.338499007417455755e-01 1.273781126276165310e+02 1.298119882833020933e+00 2.560540744924404144e-02
1.366198808900946915e-01 1.300417362046580934e+02 1.367313106482378249e+00 2.634864255914276879e-02
1.393898610384438075e-01 1.327067835186004743e+02 1.438568142649059522e+00 2.712494097980997290e-02
1.421598411867928957e-01 1.353732681682426175e+02 1.511978080581762640e+00 2.793609386271474204e-02
1.449298213351420117e-01 1.380412050855750010e+02 1.587641091778347890e+00 2.878395747857156670e-02
1.476998014834911277e-01 1.407106105583108047e+02 1.665660624566427606e+00 2.967045472114310592e-02
1.504697816318402437e-01 1.433815022544271471e+02 1.746145603958480397e+00 3.059757648504927638e-02
1.532397617801893597e-01 1.460538992486229688e+02 1.829210636548162405e+00 3.156738291780687017e-02
1.560097419285384757e-01 1.487278220506101718e+02 1.914976220219917424e+00 3.258200454589672834e-02
1.587797220768875917e-01 1.514032926351584081e+02 2.003568958448587622e+00 3.364364327424195639e-02
1.615497022252367076e-01 1.540803344738202725e+02 2.095121778969513571e+00 3.475457325807832648e-02
1.643196823735858236e-01 1.567589725682631752e+02 2.189774156602635635e+00 3.591714164581314567e-02
1.670896625219349396e-01 1.594392334851422675e+02 2.287672340016369876e+00 3.713376919109859925e-02
1.698596426702840279e-01 1.621211453924507282e+02 2.388969582218597676e+00 3.840695073199493909e-02
1.726296228186331438e-01 1.648047380972833480e+02 2.493826374562980064e+00 3.973925553476487238e-02
1.753996029669822598e-01 1.674900430849582165e+02 2.602410684059017321e+00 4.113332749952816614e-02
1.781695831153313758e-01 1.701770935594362300e+02 2.714898193773921609e+00 4.259188522471307747e-02
1.809395632636804918e-01 1.728659244849864933e+02 2.831472546113370292e+00 4.411772192697031164e-02
1.837095434120296078e-01 1.755565726290432451e+02 2.952325588766720355e+00 4.571370521296801159e-02
1.864795235603787238e-01 1.782490766062024932e+02 3.077657623100235273e+00 4.738277669926127533e-02
1.892495037087278398e-01 1.809434769233106692e+02 3.207677654779396370e+00 4.912795147623120334e-02
1.920194838570769558e-01 1.836398160255937171e+02 3.342603646398427664e+00 5.095231741191352803e-02
1.947894640054260718e-01 1.863381383437796615e+02 3.482662771891841480e+00 5.285903429139043180e-02
1.975594441537751877e-01 1.890384903421686147e+02 3.628091672499095921e+00 5.485133278729831252e-02
2.003294243021243037e-01 1.917409205676031831e+02 3.779136714049422530e+00 5.693251325691378595e-02
2.030994044504734197e-01 1.944454796992924628e+02 3.936054245329524193e+00 5.910594436121834050e-02
2.058693845988225357e-01 1.971522205994470767e+02 4.099110857292228793e+00 6.137506150130959265e-02
2.086393647471716517e-01 1.998611983646777901e+02 4.268583642859319127e+00 6.374336506752906195e-02
2.114093448955207677e-01 2.025724703781138203e+02 4.444760457066669446e+00 6.621441849670690882e-02
2.141793250438698837e-01 2.052860963621984070e+02 4.627940177294584068e+00 6.879184613299149653e-02
2.169493051922189997e-01 2.080021384321134690e+02 4.818432963320784523e+00 7.147933088783034461e-02
2.197192853405680879e-01 2.107206611497931306e+02 5.016560516927968116e+00 7.428061169480422443e-02
2.224892654889172039e-01 2.134417315784784250e+02 5.222656340792208418e+00 7.719948075518749675e-02
2.252592456372663199e-01 2.161654193377714819e+02 5.437065996372703935e+00 8.023978057031304345e-02
2.280292257856154359e-01 2.188917966591415336e+02 5.660147360517647108e+00 8.340540075706572021e-02
2.307992059339645519e-01 2.216209384418409059e+02 5.892270880495104279e+00 8.670027464310883780e-02
2.335691860823136679e-01 2.243529223091840663e+02 6.133819827151976156e+00 9.012837563876685554e-02
2.363391662306627561e-01 2.270878286651430358e+02 6.385190545898245418e+00 9.369371338284576689e-02
2.391091463790118721e-01 2.298257407512170118e+02 6.646792705207901442e+00 9.740032966006775816e-02
2.418791265273609881e-01 2.325667447035255293e+02 6.919049542322064816e+00 1.012522940882301520e-01
2.446491066757101041e-01 2.353109296100815868e+02 7.202398105834135755e+00 1.052536995736711584e-01
2.474190868240592200e-01 2.380583875681972472e+02 7.497289494830980949e+00 1.094086575341345208e-01
2.501890669724083360e-01 2.408092137419697281e+02 7.804189094258545012e+00 1.137212928886730812e-01
2.529590471207574520e-01 2.435635064198082489e+02 8.123576806174611420e+00 1.181957388148135724e-01
2.557290272691065680e-01 2.463213670719423760e+02 8.455947276545900948e+00 1.228361312738281974e-01
3.321427205901452129e-01 3.246550057534797702e+02 2.676955121148643713e+01 3.373638769778508628e-01
4.085564139111838577e-01 4.090929173189244352e+02 6.486913423900882947e+01 5.518916226818735282e-01
4.849701072322225026e-01 5.025597690784295537e+02 1.273656918042021573e+02 7.664193683858960826e-01
5.613838005532612030e-01 6.070963354357570552e+02 1.866022076416801951e+02 3.924938101355475717e-01
6.377974938742998479e-01 7.175375812000268070e+02 2.206712768791510939e+02 2.289462040028886758e-01
7.142111871953384927e-01 8.316328177707971463e+02 2.512368181809405883e+02 3.055178063539865096e-01
7.906248805163771376e-01 9.495014395501749505e+02 2.918558884242814884e+02 3.820894087050843435e-01
8.670385738374157825e-01 1.071789793169719587e+03 3.433792635168429683e+02 4.586610110561821774e-01
9.434522671584544273e-01 1.199110407530648445e+03 4.067899622753103586e+02 5.352326134072800112e-01
1.019865960479493072e+00 1.332004119003914866e+03 4.796983634526823153e+02 5.613600492345240944e-01
1.096279653800531717e+00 1.470568338438663886e+03 5.568219157002176871e+02 5.522912156937150874e-01
1.172693347121570362e+00 1.614572480149426610e+03 6.356710818270581740e+02 5.432223821529060803e-01
1.249107040442609007e+00 1.763766615311330497e+03 7.160122728352840795e+02 5.341535486120970733e-01
1.325520733763647652e+00 1.917917617628631433e+03 7.976276490567333894e+02 5.250847150712880662e-01
1.401934427084686297e+00 2.076807111412255836e+03 8.803134308796784353e+02 5.160158815304790592e-01
1.478348120405724941e+00 2.240229783766047603e+03 9.638784919277978815e+02 5.069470479896700521e-01
1.554761813726763586e+00 2.407991979501744936e+03 1.048143173005906647e+03 4.978782144488609895e-01
1.631175507047802231e+00 2.579910518846501873e+03 1.132938271212344944e+03 4.888093809080519825e-01
1.707589200368840876e+00 2.755811693033769188e+03 1.218104169912467569e+03 4.797405473672429754e-01
1.784002893689879521e+00 2.935530403605680021e+03 1.303490083357484309e+03 4.706717138264339684e-01
1.860416587010918166e+00 3.118909419062898451e+03 1.388953395631225931e+03 4.616028802856249058e-01
1.936830280331956811e+00 3.305798728265288901e+03 1.474359077977253492e+03 4.525340467448158988e-01
2.013243973652995233e+00 3.496054974308270175e+03 1.559579171843361109e+03 4.434652132040069472e-01
2.089657666974034100e+00 3.689586993116658959e+03 1.649034965700570183e+03 4.805615643453092778e-01
