# density  energy_density  pressure   sound_speed_squared  [All in nuclear units]
2.720000000000000022e-14 2.529924618736292620e-11 1.061056609100270887e-19 3.766610435412189122e-08
1.269999999999999890e-13 1.181251617980081254e-10 4.870113551826584858e-18 6.497781477172163475e-08
6.929999999999999754e-13 6.445728594625782745e-10 1.018299070687946017e-16 3.033770597342807186e-07
6.295000000000000137e-12 5.855111460395753757e-09 5.487150723824490656e-15 1.763710043904196507e-06
1.581000000000000150e-11 1.470523320212576141e-08 2.904239460150760759e-14 3.559434472327477622e-06
3.971999999999999958e-11 3.694456170323160790e-08 1.439340266754906811e-13 6.772854871245677111e-06
9.975999999999999982e-11 9.278976412613005154e-08 6.812143616221268841e-13 1.246890511177539320e-05
2.505999999999999928e-10 2.330928829758143313e-07 3.107749196951638608e-12 2.212095130576091967e-05
6.294000000000000186e-10 5.854398883216247602e-07 1.363250409771533549e-11 3.761981047239428883e-05
1.581000000000000021e-09 1.470619631082054101e-06 5.726014178088476303e-11 6.095350986710739404e-05
3.971999999999999932e-09 3.694861084648016046e-06 2.210019573374265380e-10 8.628023653304385055e-05
5.000000000000000105e-09 4.651201787816927976e-06 3.071485916280120014e-10 9.387863480799757518e-05
9.975999999999999465e-09 9.280587964640925786e-06 8.385361004129998845e-10 1.356922228656245837e-04
1.989999999999999952e-08 1.851419242998081003e-05 2.287763168863418088e-09 1.782101978513718314e-04
3.972999999999999908e-08 3.696699295748789187e-05 6.061583099087538954e-09 2.308134738384234820e-04
7.925999999999999637e-08 7.375765469301719828e-05 1.575347858094044765e-08 2.960532096713864875e-04
1.580999999999999930e-07 1.471491184379128891e-04 3.910429618672550719e-08 3.402859755131850544e-04
1.991000000000000027e-07 1.853209783927820692e-04 5.252045687899177454e-08 3.626488188833278743e-04
3.155999999999999938e-07 2.938002528823880299e-04 9.730770378831954314e-08 4.630767356912104081e-04
5.000999999999999849e-07 4.656344063839075714e-04 1.837494945860225819e-07 5.430301232045120323e-04
6.295999999999999732e-07 5.862651417037388971e-04 2.503103884558263872e-07 5.605192962670089638e-04
9.666999999999999941e-07 9.003386739730535665e-04 4.324450868778576936e-07 5.993081670211623108e-04
1.531999999999999901e-06 1.427170885631398036e-03 7.780217275717420968e-07 7.125938556504039095e-04
2.506999999999999883e-06 2.336134972129507662e-03 1.471005394641589826e-06 8.121876172121876309e-04
3.974000000000000407e-06 3.704315759716615697e-03 2.695705763844323844e-06 9.780674166779417152e-04
4.830000000000000343e-06 4.502887798316278223e-03 3.503988717694660908e-06 1.046253037768318664e-03
6.080999999999999885e-06 5.670217999231269741e-03 4.731126407333307547e-06 1.056224360839501646e-03
7.930000000000000308e-06 7.396012414119570652e-03 6.599662989063778187e-06 1.109203753630785610e-03
9.982000000000000313e-06 9.311815711689977113e-03 8.879881089227186733e-06 1.271216815433141075e-03
1.256999999999999993e-05 1.172874412604260098e-02 1.207676739913533738e-05 1.374195438212825332e-03
1.521999999999999997e-05 1.420427250933824909e-02 1.547541302213394990e-05 1.371610497379100249e-03
1.991000000000000080e-05 1.858690797761085312e-02 2.160710455847765458e-05 1.426578142835871997e-03
2.506999999999999883e-05 2.341050104039446925e-02 2.908031724375689851e-05 1.672007475975408053e-03
2.790999999999999875e-05 2.606604784714952258e-02 3.357009132255487721e-05 1.709425557744154774e-03
3.806999999999999973e-05 3.556967988784798945e-02 4.986781576435106434e-05 1.720407281314112165e-03
5.063000000000000145e-05 4.732434580343149871e-02 7.073400252905581275e-05 1.829889149838781265e-03
6.592000000000000583e-05 6.164112392498975052e-02 9.765037643900635188e-05 1.930242980462695823e-03
8.433000000000000066e-05 7.888776783401378612e-02 1.317235490470395893e-04 2.021055815200022837e-03
1.062000000000000064e-04 9.938561165478684845e-02 1.740088341640037047e-04 2.104789529260958983e-03
1.321000000000000126e-04 1.236720406455826121e-01 2.260189757651373944e-04 2.178291718403657477e-03
1.623999999999999901e-04 1.520974545104751274e-01 2.888169908545388338e-04 2.240170365918073281e-03
1.689999999999999879e-04 1.582907717069566844e-01 3.027354772999506964e-04 2.254509350360745651e-03
1.758999999999999930e-04 1.647661861691531171e-01 3.173785841705756782e-04 2.268169273277113179e-03
1.830000000000000029e-04 1.714298948183871907e-01 3.325196584577469103e-04 2.276170334580628063e-03
1.901999999999999882e-04 1.781880600978280049e-01 3.479577791899843742e-04 2.292561569242367037e-03
1.977000000000000079e-04 1.852284385240466902e-01 3.641242634600037713e-04 2.299943765467868384e-03
2.054000000000000053e-04 1.924572004474696396e-01 3.808304060475003897e-04 2.322187632288155723e-03
2.079000000000000119e-04 1.948043378760714872e-01 3.864137987380476553e-04 2.435429768083530178e-03
2.081999999999999921e-04 1.950859988578999005e-01 3.870314100985603909e-04 1.950065624557156818e-03
2.090999999999999868e-04 1.959309855029948977e-01 3.881261957135444685e-04 6.411875526909013856e-04
2.159999999999999919e-04 2.024093317906446865e-01 3.940874488768042125e-04 1.199166870571831411e-03
2.231000000000000019e-04 2.090756740932291913e-01 4.013938420547467825e-04 9.928616047829054436e-04
2.311000000000000066e-04 2.165873044433437034e-01 4.085241694843774404e-04 9.056166966301716637e-04
2.401000000000000085e-04 2.250381721984245909e-01 4.159700687886608468e-04 8.565463878902855599e-04
2.500000000000000052e-04 2.343344406330727658e-01 4.237602369176299592e-04 8.194318812157330018e-04
2.642999999999999733e-04 2.477629128650125634e-01 4.345596643180389446e-04 7.890063723638815647e-04
3.052999999999999941e-04 2.862671839140227270e-01 4.644058706720978241e-04 7.612775562167708662e-04
3.533000000000000224e-04 3.313503829113090826e-01 4.987577676308450197e-04 7.626578558207241024e-04
4.075999999999999871e-04 3.823564017794535141e-01 5.381334366106255759e-04 7.813048116943254948e-04
4.679999999999999915e-04 4.390986251953180042e-01 5.832692638200615834e-04 8.096035963157804938e-04
5.341000000000000261e-04 5.012024644415256081e-01 6.346556894078133086e-04 8.452514814113673558e-04
6.059000000000000366e-04 5.686690698184251325e-01 6.930641302632923034e-04 8.862253587289389486e-04
7.661000000000000275e-04 7.192254882508629654e-01 8.328184776562496576e-04 9.702780530519144065e-04
1.262000000000000101e-03 1.185459127778160093e+00 1.338484980802662205e-03 1.198863597978450275e-03
1.894999999999999983e-03 1.780909071169781921e+00 2.123481960401060308e-03 1.437771491635827115e-03
2.673000000000000029e-03 2.513147344746868850e+00 3.261860252001994032e-03 1.671524566936786766e-03
3.605999999999999830e-03 3.391736073717691369e+00 4.828136641022434151e-03 1.893900408978071038e-03
4.709999999999999777e-03 4.431905410739045870e+00 6.903512974832482635e-03 2.096551352830673849e-03
7.496000000000000059e-03 7.058993649504918366e+00 1.289742191321638018e-02 2.466596387205546859e-03
1.119999999999999989e-02 1.055540362104863661e+01 2.212077014004794340e-02 2.809304433764861584e-03
1.600000000000000033e-02 1.509117352747679952e+01 3.559566804390756900e-02 3.132325055719984222e-03
2.206999999999999934e-02 2.083310616724802244e+01 5.457322122755020599e-02 3.477840948757840792e-03
2.947999999999999926e-02 2.785007348564149154e+01 8.049103664263126956e-02 3.909302116317729670e-03
4.268000000000000266e-02 4.036707211535221518e+01 1.353887601042819133e-01 4.862066536253286525e-03
6.219999999999999835e-02 5.891246509830522626e+01 2.419691225623893105e-01 6.630786177272363080e-03
7.316999999999999893e-02 6.935151695866235855e+01 3.161896974764099033e-01 7.588671314871411888e-03
7.595999999999999974e-02 7.200836722020332559e+01 3.371250777904805096e-01 8.170805199905812125e-03
7.685877551020407761e-02 7.286441675590974398e+01 3.441985637531984055e-01 8.355067374169550254e-03
7.775755102040816935e-02 7.372054990789546025e+01 3.514262209648116309e-01 8.529348770694687720e-03
7.865632653061224722e-02 7.457676744402711222e+01 3.587997650880537237e-01 8.694174432303922520e-03
7.955510204081632508e-02 7.543307002249390791e+01 3.663113583508761928e-01 8.850069401819973466e-03
8.045387755102040295e-02 7.628945820057181493e+01 3.739536096935947018e-01 8.997558722065545495e-03
8.135265306122449469e-02 7.714593244299733499e+01 3.817195749317714437e-01 9.137167435863350479e-03
8.225142857142857256e-02 7.800249312997374318e+01 3.896027569325593021e-01 9.269420586036088150e-03
8.315020408163265042e-02 7.885914056482869228e+01 3.975971058024624916e-01 9.394843215406470383e-03
8.404897959183672829e-02 7.971587498134303473e+01 4.056970190846732605e-01 9.513960366797209051e-03
8.494775510204082003e-02 8.057269655076861170e+01 4.138973419643436347e-01 9.627297083031010824e-03
8.584653061224489790e-02 8.142960538855034258e+01 4.221933674803292624e-01 9.735378406930582373e-03
8.674530612244897576e-02 8.228660156077002341e+01 4.305808367421152805e-01 9.838729381318635572e-03
8.764408163265305363e-02 8.314368509032465226e+01 4.390559391507879994e-01 9.937875049017875356e-03
8.854285714285714537e-02 8.400085596285381939e+01 4.476153126230674739e-01 1.003334045285101533e-02
8.944163265306122323e-02 8.485811413242839762e+01 4.562560438175513600e-01 1.012565063564075697e-02
9.034040816326530110e-02 8.571545952701339388e+01 4.649756683624523546e-01 1.021533064020981388e-02
9.123918367346939284e-02 8.657289205371515095e+01 4.737721710842285883e-01 1.030290550938088925e-02
9.213795918367347071e-02 8.743041160382423982e+01 4.826439862366225242e-01 1.038890028597669844e-02
9.303673469387754857e-02 8.828801805766376276e+01 4.915899977297303325e-01 1.047384001281994464e-02
9.393551020408162644e-02 8.914571128925236110e+01 5.006095393588203546e-01 1.055824973273333973e-02
9.483428571428570431e-02 9.000349117079120731e+01 5.097023950327157493e-01 1.064265448853958865e-02
9.573306122448979605e-02 9.086135757698291116e+01 5.188687990016440654e-01 1.072757932306140673e-02
9.663183673469387391e-02 9.171931038919014156e+01 5.281094360845369762e-01 1.081354927912149197e-02
9.753061224489795178e-02 9.257734949944213554e+01 5.374254418958451796e-01 1.090108939954255972e-02
9.842938775510204352e-02 9.343547481429494894e+01 5.468184030720022459e-01 1.099072472714731838e-02
9.932816326530612139e-02 9.429368625855322250e+01 5.562903574977435817e-01 1.108298030475847462e-02
1.002269387755101993e-01 9.515198377885940317e+01 5.658437945325520690e-01 1.117838117519873685e-02
1.011257142857142910e-01 9.601036734715547993e+01 5.754816552375607852e-01 1.127745238129081520e-02
1.020244897959183689e-01 9.686883696402465205e+01 5.852073326033022660e-01 1.138071896585741462e-02
1.029232653061224467e-01 9.772739266191643992e+01 5.950246717787528450e-01 1.148870597172124523e-02
1.038220408163265246e-01 9.858603450826154813e+01 6.049379703021640076e-01 1.160193844170501545e-02
1.047208163265306025e-01 9.944476260848085758e+01 6.149519783342308754e-01 1.172094141863143715e-02
1.056195918367346942e-01 1.003035771088929806e+02 6.250718988941883492e-01 1.184623994532321700e-02
1.065183673469387721e-01 1.011624781995247844e+02 6.353033880994712890e-01 1.197835906460305994e-02
1.074171428571428499e-01 1.020214661168295152e+02 6.456525554096191888e-01 1.211782381929367783e-02
1.083159183673469417e-01 1.028805411463153376e+02 6.561259638751407719e-01 1.226515925221777562e-02
1.092146938775510195e-01 1.037397036250895042e+02 6.667306303920955690e-01 1.242089040619806690e-02
1.101134693877550974e-01 1.045989539443198595e+02 6.774740259631842898e-01 1.258554232405725837e-02
1.110122448979591891e-01 1.054582925516194507e+02 6.883640759661723285e-01 1.275964004861805667e-02
1.119110204081632531e-01 1.063177199533548958e+02 6.994091604305039400e-01 1.294370862270316849e-02
1.128097959183673449e-01 1.071772367168834705e+02 7.106181143229985953e-01 1.313827308913530743e-02
1.137085714285714227e-01 1.080368434727210314e+02 7.220002278435410092e-01 1.334385849073717843e-02
1.146073469387755006e-01 1.088965409166439997e+02 7.335652467317189673e-01 1.356098987033149163e-02
1.155061224489795924e-01 1.097563298117273973e+02 7.453233725853746217e-01 1.379019227074095889e-02
1.164048979591836702e-01 1.106162109903224291e+02 7.572852631920695687e-01 1.403199073478827649e-02
1.173036734693877481e-01 1.114761853559754456e+02 7.694620328744881110e-01 1.428691030529616497e-02
1.182024489795918398e-01 1.123362538852906738e+02 7.818652528508212018e-01 1.455547602508733274e-02
1.191012244897959177e-01 1.131964176297389457e+02 7.945069516112001073e-01 1.483821293698447952e-02
1.199999999999999956e-01 1.140566777174152406e+02 8.073996153112715790e-01 1.513564608381031719e-02
1.216158400190069794e-01 1.156035206435224154e+02 8.312505118823845240e-01 1.570246391028589511e-02
1.232316800380139493e-01 1.171506864079179309e+02 8.559993787463550108e-01 1.629000183690973089e-02
1.248475200570209331e-01 1.186981827669828249e+02 8.816791405500684631e-01 1.689872384164713484e-02
1.264633600760279031e-01 1.202460177073564864e+02 9.083234822280737975e-01 1.752909837061285281e-02
1.280792000950349008e-01 1.217941994468826152e+02 9.359668581192829295e-01 1.818159830029697499e-02
1.296950401140418707e-01 1.233427364356224558e+02 9.646445011226310040e-01 1.885670089660884327e-02
1.313108801330488407e-01 1.248916373569312839e+02 9.943924318899878267e-01 1.955488777078513707e-02
1.329267201520558384e-01 1.264409111285965253e+02 1.025247468054707678e+00 2.027664483219926081e-02
1.345425601710628083e-01 1.279905669040311693e+02 1.057247233494330807e+00 2.102246223810608911e-02
1.361584001900698060e-01 1.295406140735234146e+02 1.090430167626050828e+00 2.179283434034514494e-02
1.377742402090767759e-01 1.310910622655350721e+02 1.124835534733632292e+00 2.258825962902561574e-02
1.393900802280837459e-01 1.326419213480507437e+02 1.160503433324574285e+00 2.340924067320602348e-02
1.410059202470907436e-01 1.341932014299717935e+02 1.197474805516360208e+00 2.425628405858105269e-02
1.426217602660977135e-01 1.357449128625541732e+02 1.235791446450715814e+00 2.512990032218133038e-02
1.442376002851046835e-01 1.372970662408889098e+02 1.275496013734859435e+00 2.603060388409025178e-02
1.458534403041116811e-01 1.388496724054211882e+02 1.316632036908762071e+00 2.695891297617673474e-02
1.474692803231186511e-01 1.404027424435068383e+02 1.359243926937498737e+00 2.791534956784126956e-02
1.490851203421256210e-01 1.419562876910059686e+02 1.403376985727813553e+00 2.890043928876961932e-02
1.507009603611326187e-01 1.435103197339096255e+02 1.449077415668038382e+00 2.991471134868544518e-02
1.523168003801395887e-01 1.450648504099998775e+02 1.496392329190554982e+00 3.095869845409229132e-02
1.539326403991465586e-01 1.466198918105402242e+02 1.545369758356015755e+00 3.203293672199256786e-02
1.555484804181535563e-01 1.481754562819963041e+02 1.596058664458542387e+00 3.313796559056988306e-02
1.571643204371605262e-01 1.497315564277851365e+02 1.648508947651158740e+00 3.427432772682017376e-02
1.587801604561674962e-01 1.512882051100504270e+02 1.702771456590731258e+00 3.544256893111535217e-02
1.603960004751744939e-01 1.528454154514652430e+02 1.758897998101677684e+00 3.664323803868258650e-02
1.620118404941814638e-01 1.544032008370582787e+02 1.816941346857736228e+00 3.787688681798181273e-02
1.636276805131884338e-01 1.559615749160648193e+02 1.876955255081095064e+00 3.914406986596306870e-02
1.652435205321954315e-01 1.575205516037995608e+02 1.938994462258155416e+00 4.044534450018551913e-02
1.668593605512024014e-01 1.590801450835517983e+02 2.003114704871230778e+00 4.178127064777910349e-02
1.684752005702093713e-01 1.606403698085019016e+02 2.069372726145481955e+00 4.315241073123108478e-02
1.700910405892163690e-01 1.622012405036564928e+02 2.137826285810351390e+00 4.455932955097801490e-02
1.717068806082233390e-01 1.637627721678042292e+02 2.208534169874785569e+00 4.600259416478587327e-02
1.733227206272303089e-01 1.653249800754891510e+02 2.281556200415524760e+00 4.748277376390049043e-02
1.749385606462373066e-01 1.668878797790021338e+02 2.356953245377695794e+00 4.900043954595117296e-02
1.765544006652442766e-01 1.684514871103893654e+02 2.434787228386962710e+00 5.055616458459149393e-02
1.781702406842512465e-01 1.700158181834764548e+02 2.515121138572475878e+00 5.215052369586216374e-02
1.797860807032582442e-01 1.715808893959094803e+02 2.598019040399811352e+00 5.378409330126122934e-02
1.814019207222652141e-01 1.731467174312093391e+02 2.683546083513104197e+00 5.545745128750884101e-02
1.830177607412721841e-01 1.747133192608427521e+02 2.771768512585569333e+00 5.717117686299524187e-02
1.846336007602791818e-01 1.762807121463051487e+02 2.862753677177533707e+00 5.892585041090078052e-02
1.862494407792861517e-01 1.778489136412177629e+02 2.956570041601128906e+00 6.072205333897982837e-02
1.878652807982931217e-01 1.794179415934376038e+02 3.053287194790766712e+00 6.256036792600136454e-02
1.894811208173001194e-01 1.809878141471797051e+02 3.152975860178453882e+00 6.444137716484091283e-02
1.910969608363070893e-01 1.825585497451511969e+02 3.255707905573019367e+00 6.636566460222012576e-02
1.927128008553140592e-01 1.841301671306961794e+02 3.361556353042300938e+00 6.833381417509341860e-02
1.943286408743210569e-01 1.857026853499526737e+02 3.470595388797265368e+00 7.034641004368159811e-02
1.959444808933280269e-01 1.872761237540188120e+02 3.582900373077050560e+00 7.240403642115565697e-02
1.975603209123349968e-01 1.888505020011295414e+02 3.698547850033893525e+00 7.450727739997677068e-02
1.991761609313419945e-01 1.904258400588433631e+02 3.817615557616825139e+00 7.665671677489928337e-02
2.767439943817227577e-01 2.687860046794409072e+02 2.277148825975781321e+01 3.929143365470168514e-01
3.543118278321035763e-01 3.547317376585608031e+02 5.542809668269536871e+01 3.697816038521300475e-01
4.318796612824843395e-01 4.479586341731014727e+02 8.873758836093624325e+01 3.466488711572431880e-01
5.094474947328651027e-01 5.471936298091337676e+02 1.219246942956280719e+02 3.235161384623563841e-01
5.870153281832458658e-01 6.514510577040589396e+02 1.543975243498461225e+02 3.003834057674695801e-01
6.645831616336266290e-01 7.599377542951033320e+02 1.856907287154204482e+02 2.772506730725827762e-01
7.421509950840075032e-01 8.719978296950453114e+02 2.154318257973293385e+02 2.541179403776959167e-01
8.197188285343881553e-01 9.870778882115178021e+02 2.433194988257953923e+02 2.309852076828091405e-01
8.972866619847690295e-01 1.104703796226166332e+03 2.691087172413695043e+02 2.078524749879222810e-01
9.748544954351496816e-01 1.224464434317627138e+03 2.926000449753432804e+02 1.847197422930355049e-01
1.052422328885530556e+00 1.346005329447710665e+03 3.137993633034493541e+02 1.643117586429387322e-01
1.129990162335911430e+00 1.469043427208219555e+03 3.332394016503523630e+02 1.517905538489263129e-01
1.207557995786292082e+00 1.593371420471880356e+03 3.513275948181718036e+02 1.392693490549139212e-01
1.285125829236672956e+00 1.718817613085828270e+03 3.680086477211603437e+02 1.267481442609015296e-01
1.362693662687053608e+00 1.845227990207173207e+03 3.832358750599037194e+02 1.142269394668891380e-01
1.440261496137434483e+00 1.972463649723176559e+03 3.969700312938190905e+02 1.017057346728767186e-01
1.517829329587815357e+00 2.100398731021559342e+03 4.091783509035101929e+02 8.918452987886429928e-02
1.595397163038196009e+00 2.228918723191043227e+03 4.198337511586034339e+02 7.666332508485192154e-02
1.672964996488576883e+00 2.357919067229354823e+03 4.289141624558150170e+02 6.414212029083950217e-02
1.750532829938957535e+00 2.487303989254648059e+03 4.364019602163807576e+02 5.162091549682712444e-02
1.828100663389338409e+00 2.617085081217614061e+03 4.472295563775290930e+02 1.151162963834780062e-01
1.905668496839719062e+00 2.747506539667600009e+03 4.671007174059273552e+02 1.893419452301350059e-01
1.983236330290099936e+00 2.878928555271687856e+03 4.968880382383193819e+02 2.635675940767922554e-01
2.060804163740480810e+00 3.011704641115945378e+03 5.368468431351133177e+02 3.377932429234494771e-01
