# density  energy_density  pressure   sound_speed_squared  [All in nuclear units]
2.720000000000000022e-14 2.529924618736292620e-11 1.061056609100270887e-19 3.766610435412189122e-08
1.269999999999999890e-13 1.181251617980081254e-10 4.870113551826584858e-18 6.497781477172163475e-08
6.929999999999999754e-13 6.445728594625782745e-10 1.018299070687946017e-16 3.033770597342807186e-07
6.295000000000000137e-12 5.855111460395753757e-09 5.487150723824490656e-15 1.763710043904196507e-06
1.581000000000000150e-11 1.470523320212576141e-08 2.904239460150760759e-14 3.559434472327477622e-06
3.971999999999999958e-11 3.694456170323160790e-08 1.439340266754906811e-13 6.772854871245677111e-06
9.975999999999999982e-11 9.278976412613005154e-08 6.812143616221268841e-13 1.246890511177539320e-05
2.505999999999999928e-10 2.330928829758143313e-07 3.107749196951638608e-12 2.212095130576091967e-05
6.294000000000000186e-10 5.854398883216247602e-07 1.363250409771533549e-11 3.761981047239428883e-05
1.581000000000000021e-09 1.470619631082054101e-06 5.726014178088476303e-11 6.095350986710739404e-05
3.971999999999999932e-09 3.694861084648016046e-06 2.210019573374265380e-10 8.628023653304385055e-05
5.000000000000000105e-09 4.651201787816927976e-06 3.071485916280120014e-10 9.387863480799757518e-05
9.975999999999999465e-09 9.280587964640925786e-06 8.385361004129998845e-10 1.356922228656245837e-04
1.989999999999999952e-08 1.851419242998081003e-05 2.287763168863418088e-09 1.782101978513718314e-04
3.972999999999999908e-08 3.696699295748789187e-05 6.061583099087538954e-09 2.308134738384234820e-04
7.925999999999999637e-08 7.375765469301719828e-05 1.575347858094044765e-08 2.960532096713864875e-04
1.580999999999999930e-07 1.471491184379128891e-04 3.910429618672550719e-08 3.402859755131850544e-04
1.991000000000000027e-07 1.853209783927820692e-04 5.252045687899177454e-08 3.626488188833278743e-04
3.155999999999999938e-07 2.938002528823880299e-04 9.730770378831954314e-08 4.630767356912104081e-04
5.000999999999999849e-07 4.656344063839075714e-04 1.837494945860225819e-07 5.430301232045120323e-04
6.295999999999999732e-07 5.862651417037388971e-04 2.503103884558263872e-07 5.605192962670089638e-04
9.666999999999999941e-07 9.003386739730535665e-04 4.324450868778576936e-07 5.993081670211623108e-04
1.531999999999999901e-06 1.427170885631398036e-03 7.780217275717420968e-07 7.125938556504039095e-04
2.506999999999999883e-06 2.336134972129507662e-03 1.471005394641589826e-06 8.121876172121876309e-04
3.974000000000000407e-06 3.704315759716615697e-03 2.695705763844323844e-06 9.780674166779417152e-04
4.830000000000000343e-06 4.502887798316278223e-03 3.503988717694660908e-06 1.046253037768318664e-03
6.080999999999999885e-06 5.670217999231269741e-03 4.731126407333307547e-06 1.056224360839501646e-03
7.930000000000000308e-06 7.396012414119570652e-03 6.599662989063778187e-06 1.109203753630785610e-03
9.982000000000000313e-06 9.311815711689977113e-03 8.879881089227186733e-06 1.271216815433141075e-03
1.256999999999999993e-05 1.172874412604260098e-02 1.207676739913533738e-05 1.374195438212825332e-03
1.521999999999999997e-05 1.420427250933824909e-02 1.547541302213394990e-05 1.371610497379100249e-03
1.991000000000000080e-05 1.858690797761085312e-02 2.160710455847765458e-05 1.426578142835871997e-03
2.506999999999999883e-05 2.341050104039446925e-02 2.908031724375689851e-05 1.672007475975408053e-03
2.790999999999999875e-05 2.606604784714952258e-02 3.357009132255487721e-05 1.709425557744154774e-03
3.806999999999999973e-05 3.556967988784798945e-02 4.986781576435106434e-05 1.720407281314112165e-03
5.063000000000000145e-05 4.732434580343149871e-02 7.073400252905581275e-05 1.829889149838781265e-03
6.592000000000000583e-05 6.164112392498975052e-02 9.765037643900635188e-05 1.930242980462695823e-03
8.433000000000000066e-05 7.888776783401378612e-02 1.317235490470395893e-04 2.021055815200022837e-03
1.062000000000000064e-04 9.938561165478684845e-02 1.740088341640037047e-04 2.104789529260958983e-03
1.321000000000000126e-04 1.236720406455826121e-01 2.260189757651373944e-04 2.178291718403657477e-03
1.623999999999999901e-04 1.520974545104751274e-01 2.888169908545388338e-04 2.240170365918073281e-03
1.689999999999999879e-04 1.582907717069566844e-01 3.027354772999506964e-04 2.254509350360745651e-03
1.758999999999999930e-04 1.647661861691531171e-01 3.173785841705756782e-04 2.268169273277113179e-03
1.830000000000000029e-04 1.714298948183871907e-01 3.325196584577469103e-04 2.276170334580628063e-03
1.901999999999999882e-04 1.781880600978280049e-01 3.479577791899843742e-04 2.292561569242367037e-03
1.977000000000000079e-04 1.852284385240466902e-01 3.641242634600037713e-04 2.299943765467868384e-03
2.054000000000000053e-04 1.924572004474696396e-01 3.808304060475003897e-04 2.322187632288155723e-03
2.079000000000000119e-04 1.948043378760714872e-01 3.864137987380476553e-04 2.435429768083530178e-03
2.081999999999999921e-04 1.950859988578999005e-01 3.870314100985603909e-04 1.950065624557156818e-03
2.090999999999999868e-04 1.959309855029948977e-01 3.881261957135444685e-04 6.411875526909013856e-04
2.159999999999999919e-04 2.024093317906446865e-01 3.940874488768042125e-04 1.199166870571831411e-03
2.231000000000000019e-04 2.090756740932291913e-01 4.013938420547467825e-04 9.928616047829054436e-04
2.311000000000000066e-04 2.165873044433437034e-01 4.085241694843774404e-04 9.056166966301716637e-04
2.401000000000000085e-04 2.250381721984245909e-01 4.159700687886608468e-04 8.565463878902855599e-04
2.500000000000000052e-04 2.343344406330727658e-01 4.237602369176299592e-04 8.194318812157330018e-04
2.642999999999999733e-04 2.477629128650125634e-01 4.345596643180389446e-04 7.890063723638815647e-04
3.052999999999999941e-04 2.862671839140227270e-01 4.644058706720978241e-04 7.612775562167708662e-04
3.533000000000000224e-04 3.313503829113090826e-01 4.987577676308450197e-04 7.626578558207241024e-04
4.075999999999999871e-04 3.823564017794535141e-01 5.381334366106255759e-04 7.813048116943254948e-04
4.679999999999999915e-04 4.390986251953180042e-01 5.832692638200615834e-04 8.096035963157804938e-04
5.341000000000000261e-04 5.012024644415256081e-01 6.346556894078133086e-04 8.452514814113673558e-04
6.059000000000000366e-04 5.686690698184251325e-01 6.930641302632923034e-04 8.862253587289389486e-04
7.661000000000000275e-04 7.192254882508629654e-01 8.328184776562496576e-04 9.702780530519144065e-04
1.262000000000000101e-03 1.185459127778160093e+00 1.338484980802662205e-03 1.198863597978450275e-03
1.894999999999999983e-03 1.780909071169781921e+00 2.123481960401060308e-03 1.437771491635827115e-03
2.673000000000000029e-03 2.513147344746868850e+00 3.261860252001994032e-03 1.671524566936786766e-03
3.605999999999999830e-03 3.391736073717691369e+00 4.828136641022434151e-03 1.893900408978071038e-03
4.709999999999999777e-03 4.431905410739045870e+00 6.903512974832482635e-03 2.096551352830673849e-03
7.496000000000000059e-03 7.058993649504918366e+00 1.289742191321638018e-02 2.466596387205546859e-03
1.119999999999999989e-02 1.055540362104863661e+01 2.212077014004794340e-02 2.809304433764861584e-03
1.600000000000000033e-02 1.509117352747679952e+01 3.559566804390756900e-02 3.132325055719984222e-03
2.206999999999999934e-02 2.083310616724802244e+01 5.457322122755020599e-02 3.477840948757840792e-03
2.947999999999999926e-02 2.785007348564149154e+01 8.049103664263126956e-02 3.909302116317729670e-03
4.268000000000000266e-02 4.036707211535221518e+01 1.353887601042819133e-01 4.862066536253286525e-03
6.219999999999999835e-02 5.891246509830522626e+01 2.419691225623893105e-01 6.630786177272363080e-03
7.316999999999999893e-02 6.935151695866235855e+01 3.161896974764099033e-01 7.588671314871411888e-03
7.595999999999999974e-02 7.200836722020332559e+01 3.371250777904805096e-01 8.170805199905813859e-03
7.685877551020407761e-02 7.286441688523153459e+01 3.442206952649500828e-01 8.406768457350194401e-03
7.775755102040816935e-02 7.372055076611388813e+01 3.515291256666037700e-01 8.666321878255993372e-03
7.865632653061224722e-02 7.457677046327710002e+01 3.590701647756917581e-01 8.948394764578702573e-03
7.955510204081632508e-02 7.543307776161590539e+01 3.668627004412454151e-01 9.251916418273820747e-03
8.045387755102040295e-02 7.628947461398193752e+01 3.749247124966608169e-01 9.575816141296851838e-03
8.135265306122449469e-02 7.714596312541000600e+01 3.832732726744616514e-01 9.919023235603296323e-03
8.225142857142857256e-02 7.800254553804022351e+01 3.919245445127815808e-01 1.028046700314864947e-02
8.315020408163265042e-02 7.885922421669810944e+01 4.008937832469253171e-01 1.065907674588840656e-02
8.404897959183672829e-02 7.971600163509732795e+01 4.101953356801193440e-01 1.105378176577807847e-02
8.494775510204082003e-02 8.057288036263045683e+01 4.198426400282739834e-01 1.146351136477316221e-02
8.584653061224489790e-02 8.142986305171740469e+01 4.298482257342300938e-01 1.188719484482914437e-02
8.674530612244897576e-02 8.228695242568153390e+01 4.402237132475802506e-01 1.232376150790153758e-02
8.764408163265305363e-02 8.314415126712569304e+01 4.509798137667201390e-01 1.277214065594583538e-02
8.854285714285714537e-02 8.400146240678239451e+01 4.621263289403235719e-01 1.323126159091754864e-02
8.944163265306122323e-02 8.485888871281304091e+01 4.736721505259284259e-01 1.370005361477215702e-02
9.034040816326530110e-02 8.571643308053423027e+01 4.856252600037925249e-01 1.417744602946517142e-02
9.123918367346939284e-02 8.657409842254850219e+01 4.979927281446071552e-01 1.466236813695209751e-02
9.213795918367347071e-02 8.743188765925938810e+01 5.107807145300702345e-01 1.515374923918842189e-02
9.303673469387754857e-02 8.828980370975182268e+01 5.239944670257044024e-01 1.565051863812964850e-02
9.393551020408162644e-02 8.914784948301972634e+01 5.376383212056595751e-01 1.615160563573127608e-02
9.483428571428570431e-02 9.000602786952326539e+01 5.517156997295846743e-01 1.665593953394880339e-02
9.573306122448979605e-02 9.086434173306039952e+01 5.662291116719649908e-01 1.716244963473774476e-02
9.663183673469387391e-02 9.172279390293699919e+01 5.811801518046232351e-01 1.767006524005357640e-02
9.753061224489795178e-02 9.258138716642132238e+01 5.965694998333664900e-01 1.817771565185180571e-02
9.842938775510204352e-02 9.344012426146926487e+01 6.123969195900194062e-01 1.868433017208794705e-02
9.932816326530612139e-02 9.429900786970844706e+01 6.286612581813419975e-01 1.918883810271748355e-02
1.002269387755101993e-01 9.515804060966719646e+01 6.453604450965649830e-01 1.969016874569591222e-02
1.011257142857142910e-01 9.601722503023944455e+01 6.624914912754953367e-01 2.018725140297875087e-02
1.020244897959183689e-01 9.687656360437225089e+01 6.800504881393606427e-01 2.067901537652147223e-02
1.029232653061224467e-01 9.773605872296828068e+01 6.980326065867624719e-01 2.116438996827959412e-02
1.038220408163265246e-01 9.859571268899161112e+01 7.164320959572924030e-01 2.164230448020861355e-02
1.047208163265306025e-01 9.945552771176841134e+01 7.352422829655511638e-01 2.211168821426403100e-02
1.056195918367346942e-01 1.003155059014747792e+02 7.544555706084796753e-01 2.257147047240135040e-02
1.065183673469387721e-01 1.011756492638018301e+02 7.740634370490718785e-01 2.302058055657604796e-02
1.074171428571428499e-01 1.020359596947922540e+02 7.940564344796999796e-01 2.345794776874364843e-02
1.083159183673469417e-01 1.028964389758393878e+02 8.144241879684197549e-01 2.388250141085964534e-02
1.092146938775510195e-01 1.037570887688428058e+02 8.351553942917732121e-01 2.429317078487952530e-02
1.101134693877550974e-01 1.046179106115143043e+02 8.562378207577376887e-01 2.468888519275880267e-02
1.110122448979591891e-01 1.054789059128262636e+02 8.776583040225917065e-01 2.506857393645298138e-02
1.119110204081632531e-01 1.063400759485991216e+02 8.994027489055962388e-01 2.543116631791753762e-02
1.128097959183673449e-01 1.072014218572203816e+02 9.214561272055102892e-01 2.577559163910799270e-02
1.137085714285714227e-01 1.080629446354906520e+02 9.438024765230511592e-01 2.610077920197983320e-02
1.146073469387755006e-01 1.089246451345918132e+02 9.664248990935472294e-01 2.640565830848856654e-02
1.155061224489795924e-01 1.097865240561727234e+02 9.893055606341014663e-01 2.668915826058969321e-02
1.164048979591836702e-01 1.106485819485476014e+02 1.012425689209701218e+00 2.695020836023869631e-02
1.173036734693877481e-01 1.115108192030031660e+02 1.035765574122799793e+00 2.718773790939109022e-02
1.182024489795918398e-01 1.123732360502108207e+02 1.059304564830974904e+00 2.740067621000238235e-02
1.191012244897959177e-01 1.132358325567393535e+02 1.083021069897365463e+00 2.758795256402805235e-02
1.199999999999999956e-01 1.140986086216657469e+02 1.106892555978669535e+00 2.774849627342360764e-02
1.211895701547549276e-01 1.152408075728758092e+02 1.138689225222706769e+00 2.792772709731989461e-02
1.223791403095098457e-01 1.163833196691411587e+02 1.170696577583008935e+00 2.810204375998093945e-02
1.235687104642647777e-01 1.175261438873164366e+02 1.202909005947617738e+00 2.827131859707190248e-02
1.247582806190196958e-01 1.186692791692427562e+02 1.235320750528740463e+00 2.843542296959825771e-02
1.259478507737746278e-01 1.198127244212877116e+02 1.267925897572100169e+00 2.859422724280603206e-02
1.271374209285295598e-01 1.209564785138899481e+02 1.300718378043342671e+00 2.874760076462688774e-02
1.283269910832844640e-01 1.221005402811082945e+02 1.333691966291084885e+00 2.889541184367207943e-02
1.295165612380393960e-01 1.232449085201757413e+02 1.366840278686191956e+00 2.903752772677900898e-02
1.307061313927943280e-01 1.243895819910564313e+02 1.400156772236862190e+00 2.917381457611177911e-02
1.318957015475492600e-01 1.255345594160064024e+02 1.433634743179131865e+00 2.930413744581812641e-02
1.330852717023041643e-01 1.266798394791377405e+02 1.467267325542388257e+00 2.942836025824272644e-02
1.342748418570590963e-01 1.278254208259847502e+02 1.501047489689502079e+00 2.954634577969769693e-02
1.354644120118140282e-01 1.289713020630726419e+02 1.534968040831173663e+00 2.965795559578811302e-02
1.366539821665689602e-01 1.301174817574880933e+02 1.569021617514116285e+00 2.976305008629220178e-02
1.378435523213238922e-01 1.312639584364522989e+02 1.603200690082673185e+00 2.986148839959386000e-02
1.390331224760787965e-01 1.324107305868940330e+02 1.637497559113483492e+00 2.995312842666454298e-02
1.402226926308337285e-01 1.335577966550252142e+02 1.671904353822808886e+00 3.003782677459134604e-02
1.414122627855886605e-01 1.347051550459155180e+02 1.706413030446120693e+00 3.011543873964739673e-02
1.426018329403435925e-01 1.358528041230698591e+02 1.741015370589570566e+00 3.018581827990034910e-02
1.437914030950985245e-01 1.370007422080036292e+02 1.775702979552941319e+00 3.024881798735373425e-02
1.449809732498534287e-01 1.381489675798198959e+02 1.810467284623686890e+00 3.030428905961617125e-02
1.461705434046083607e-01 1.392974784747855495e+02 1.845299533341669962e+00 3.035208127109240150e-02
1.473601135593632927e-01 1.404462730859069381e+02 1.880190791734186018e+00 3.039204294368989118e-02
1.485496837141181969e-01 1.415953495625049072e+02 1.915131942520886588e+00 3.042402091703442016e-02
1.497392538688731289e-01 1.427447060097894109e+02 1.950113683288192234e+00 3.044786051818740291e-02
1.509288240236280609e-01 1.438943404884322774e+02 1.985126524632778056e+00 3.046340553085749234e-02
1.521183941783829929e-01 1.450442510141394905e+02 2.020160788273735353e+00 3.047049816409872977e-02
1.533079643331379249e-01 1.461944355572209133e+02 2.055206605132982478e+00 3.046897902048670628e-02
1.544975344878928292e-01 1.473448920421594437e+02 2.090253913383510298e+00 3.045868706376447799e-02
1.556871046426477612e-01 1.484956183471779525e+02 2.125292456465039059e+00 3.043945958594893725e-02
1.568766747974026932e-01 1.496466123038032663e+02 2.160311781066648340e+00 3.041113217388871984e-02
1.580662449521576252e-01 1.507978716964294392e+02 2.195301235075962420e+00 3.037353867526380868e-02
1.592558151069125572e-01 1.519493942618776714e+02 2.230249965494441433e+00 3.032651116401693936e-02
1.604453852616674614e-01 1.531011776889536975e+02 2.265146916318335535e+00 3.026987990520675978e-02
1.616349554164223934e-01 1.542532196180028450e+02 2.299980826384862898e+00 3.020347331927213455e-02
1.628245255711773254e-01 1.554055176404618237e+02 2.334740227183141670e+00 3.012711794569671725e-02
1.640140957259322296e-01 1.565580692984077587e+02 2.369413440629432710e+00 3.004063840606292432e-02
1.652036658806871894e-01 1.577108720841043237e+02 2.403988576806224131e+00 2.994385736648376775e-02
1.663932360354420936e-01 1.588639234395432425e+02 2.438453531664672713e+00 2.983659549940113551e-02
1.675828061901970256e-01 1.600172207559841979e+02 2.472795984689958981e+00 2.971867144473840788e-02
1.687723763449519576e-01 1.611707613734897109e+02 2.507003396529035033e+00 2.958990177039563796e-02
1.699619464997068619e-01 1.623245425804568072e+02 2.541063006580309924e+00 2.945010093207453550e-02
1.711515166544617939e-01 1.634785616131446773e+02 2.574961830544767238e+00 2.929908123242108350e-02
1.723410868092167259e-01 1.646328156551983000e+02 2.608686657938011244e+00 2.913665277947264515e-02
1.735306569639716578e-01 1.657873018371682008e+02 2.642224049562752697e+00 2.896262344439664085e-02
1.747202271187265898e-01 1.669420172360251513e+02 2.675560334941210705e+00 2.877679881850755614e-02
1.759097972734814941e-01 1.680969588746715999e+02 2.708681609706924842e+00 2.857898216954881179e-02
1.770993674282364261e-01 1.692521237214477310e+02 2.741573732955457476e+00 2.836897439722560130e-02
1.782889375829913581e-01 1.704075086896326070e+02 2.774222324553449415e+00 2.814657398797532420e-02
2.562830408976242147e-01 2.483426925223594424e+02 1.613858855041994644e+01 3.055862669450747915e-01
3.342771442122570158e-01 3.324598397410652524e+02 4.272106967413225931e+01 3.263572900905193364e-01
4.122712475268898169e-01 4.232662382045219829e+02 7.331053948454507463e+01 3.471283132359638812e-01
4.902653508415226735e-01 5.202554252522681963e+02 1.080008201866971262e+02 3.678993363814084816e-01
5.682594541561555301e-01 6.231028005072132601e+02 1.469246259832355577e+02 3.886703595268530265e-01
6.462535574707883868e-01 7.315939182716438154e+02 1.902390713934054816e+02 4.094413826722975713e-01
7.242476607854211323e-01 8.455866670283627400e+02 2.381185881816466861e+02 4.302124058177421162e-01
8.022417641000539890e-01 9.647508323479758019e+02 2.831650294688922145e+02 3.287545164043219614e-01
8.802358674146868456e-01 1.087886657304012260e+03 3.208464554314952579e+02 2.842244649301129966e-01
9.582299707293197022e-01 1.214162045940997359e+03 3.538812039884989531e+02 2.396944134559041151e-01
1.036224074043952559e+00 1.342924267640186372e+03 3.818452548904646733e+02 1.951643619816952058e-01
1.114218177358585304e+00 1.473590967211027873e+03 4.044143753266998260e+02 1.506343105074863520e-01
1.192212280673218050e+00 1.605641850026433076e+03 4.213504319958201449e+02 1.061042590332774982e-01
1.270206383987850796e+00 1.738611720352468865e+03 4.324896904095455170e+02 6.157420755906867216e-02
1.348200487302483985e+00 1.872188015116268161e+03 4.413315675765867354e+02 7.079590531138077458e-02
1.426194590617116731e+00 2.006476773066578062e+03 4.581279927212349889e+02 1.789388480626870614e-01
1.504188693931749476e+00 2.142061121314367483e+03 4.897749889150358058e+02 2.870817908139933761e-01
1.582182797246382222e+00 2.279656766541682373e+03 5.367992515021238660e+02 3.952247335652996352e-01
1.660176900561014968e+00 2.419939507433388826e+03 5.999422839364638094e+02 5.033676763166058388e-01
1.738171003875648157e+00 2.563494162950881218e+03 6.734899072213895579e+02 5.210496354301054067e-01
1.816165107190280903e+00 2.710440931455954342e+03 7.509891906691075292e+02 5.335871994101877291e-01
1.894159210504913649e+00 2.860794158697501643e+03 8.321701778161651646e+02 5.461247633902700516e-01
1.972153313819546394e+00 3.014567048186240299e+03 9.171255831679563926e+02 5.586623273703524850e-01
2.050147417134179140e+00 3.171775466544915616e+03 1.005950123187391796e+03 5.711998913504348074e-01
