# density  energy_density  pressure   sound_speed_squared  [All in nuclear units]
2.720000000000000022e-14 2.529924618736292620e-11 1.061056609100270887e-19 3.766610435412189122e-08
1.269999999999999890e-13 1.181251617980081254e-10 4.870113551826584858e-18 6.497781477172163475e-08
6.929999999999999754e-13 6.445728594625782745e-10 1.018299070687946017e-16 3.033770597342807186e-07
6.295000000000000137e-12 5.855111460395753757e-09 5.487150723824490656e-15 1.763710043904196507e-06
1.581000000000000150e-11 1.470523320212576141e-08 2.904239460150760759e-14 3.559434472327477622e-06
3.971999999999999958e-11 3.694456170323160790e-08 1.439340266754906811e-13 6.772854871245677111e-06
9.975999999999999982e-11 9.278976412613005154e-08 6.812143616221268841e-13 1.246890511177539320e-05
2.505999999999999928e-10 2.330928829758143313e-07 3.107749196951638608e-12 2.212095130576091967e-05
6.294000000000000186e-10 5.854398883216247602e-07 1.363250409771533549e-11 3.761981047239428883e-05
1.581000000000000021e-09 1.470619631082054101e-06 5.726014178088476303e-11 6.095350986710739404e-05
3.971999999999999932e-09 3.694861084648016046e-06 2.210019573374265380e-10 8.628023653304385055e-05
5.000000000000000105e-09 4.651201787816927976e-06 3.071485916280120014e-10 9.387863480799757518e-05
9.975999999999999465e-09 9.280587964640925786e-06 8.385361004129998845e-10 1.356922228656245837e-04
1.989999999999999952e-08 1.851419242998081003e-05 2.287763168863418088e-09 1.782101978513718314e-04
3.972999999999999908e-08 3.696699295748789187e-05 6.061583099087538954e-09 2.308134738384234820e-04
7.925999999999999637e-08 7.375765469301719828e-05 1.575347858094044765e-08 2.960532096713864875e-04
1.580999999999999930e-07 1.471491184379128891e-04 3.910429618672550719e-08 3.402859755131850544e-04
1.991000000000000027e-07 1.853209783927820692e-04 5.252045687899177454e-08 3.626488188833278743e-04
3.155999999999999938e-07 2.938002528823880299e-04 9.730770378831954314e-08 4.630767356912104081e-04
5.000999999999999849e-07 4.656344063839075714e-04 1.837494945860225819e-07 5.430301232045120323e-04
6.295999999999999732e-07 5.862651417037388971e-04 2.503103884558263872e-07 5.605192962670089638e-04
9.666999999999999941e-07 9.003386739730535665e-04 4.324450868778576936e-07 5.993081670211623108e-04
1.531999999999999901e-06 1.427170885631398036e-03 7.780217275717420968e-07 7.125938556504039095e-04
2.506999999999999883e-06 2.336134972129507662e-03 1.471005394641589826e-06 8.121876172121876309e-04
3.974000000000000407e-06 3.704315759716615697e-03 2.695705763844323844e-06 9.780674166779417152e-04
4.830000000000000343e-06 4.502887798316278223e-03 3.503988717694660908e-06 1.046253037768318664e-03
6.080999999999999885e-06 5.670217999231269741e-03 4.731126407333307547e-06 1.056224360839501646e-03
7.930000000000000308e-06 7.396012414119570652e-03 6.599662989063778187e-06 1.109203753630785610e-03
9.982000000000000313e-06 9.311815711689977113e-03 8.879881089227186733e-06 1.271216815433141075e-03
1.256999999999999993e-05 1.172874412604260098e-02 1.207676739913533738e-05 1.374195438212825332e-03
1.521999999999999997e-05 1.420427250933824909e-02 1.547541302213394990e-05 1.371610497379100249e-03
1.991000000000000080e-05 1.858690797761085312e-02 2.160710455847765458e-05 1.426578142835871997e-03
2.506999999999999883e-05 2.341050104039446925e-02 2.908031724375689851e-05 1.672007475975408053e-03
2.790999999999999875e-05 2.606604784714952258e-02 3.357009132255487721e-05 1.709425557744154774e-03
3.806999999999999973e-05 3.556967988784798945e-02 4.986781576435106434e-05 1.720407281314112165e-03
5.063000000000000145e-05 4.732434580343149871e-02 7.073400252905581275e-05 1.829889149838781265e-03
6.592000000000000583e-05 6.164112392498975052e-02 9.765037643900635188e-05 1.930242980462695823e-03
8.433000000000000066e-05 7.888776783401378612e-02 1.317235490470395893e-04 2.021055815200022837e-03
1.062000000000000064e-04 9.938561165478684845e-02 1.740088341640037047e-04 2.104789529260958983e-03
1.321000000000000126e-04 1.236720406455826121e-01 2.260189757651373944e-04 2.178291718403657477e-03
1.623999999999999901e-04 1.520974545104751274e-01 2.888169908545388338e-04 2.240170365918073281e-03
1.689999999999999879e-04 1.582907717069566844e-01 3.027354772999506964e-04 2.254509350360745651e-03
1.758999999999999930e-04 1.647661861691531171e-01 3.173785841705756782e-04 2.268169273277113179e-03
1.830000000000000029e-04 1.714298948183871907e-01 3.325196584577469103e-04 2.276170334580628063e-03
1.901999999999999882e-04 1.781880600978280049e-01 3.479577791899843742e-04 2.292561569242367037e-03
1.977000000000000079e-04 1.852284385240466902e-01 3.641242634600037713e-04 2.299943765467868384e-03
2.054000000000000053e-04 1.924572004474696396e-01 3.808304060475003897e-04 2.322187632288155723e-03
2.079000000000000119e-04 1.948043378760714872e-01 3.864137987380476553e-04 2.435429768083530178e-03
2.081999999999999921e-04 1.950859988578999005e-01 3.870314100985603909e-04 1.950065624557156818e-03
2.090999999999999868e-04 1.959309855029948977e-01 3.881261957135444685e-04 6.411875526909013856e-04
2.159999999999999919e-04 2.024093317906446865e-01 3.940874488768042125e-04 1.199166870571831411e-03
2.231000000000000019e-04 2.090756740932291913e-01 4.013938420547467825e-04 9.928616047829054436e-04
2.311000000000000066e-04 2.165873044433437034e-01 4.085241694843774404e-04 9.056166966301716637e-04
2.401000000000000085e-04 2.250381721984245909e-01 4.159700687886608468e-04 8.565463878902855599e-04
2.500000000000000052e-04 2.343344406330727658e-01 4.237602369176299592e-04 8.194318812157330018e-04
2.642999999999999733e-04 2.477629128650125634e-01 4.345596643180389446e-04 7.890063723638815647e-04
3.052999999999999941e-04 2.862671839140227270e-01 4.644058706720978241e-04 7.612775562167708662e-04
3.533000000000000224e-04 3.313503829113090826e-01 4.987577676308450197e-04 7.626578558207241024e-04
4.075999999999999871e-04 3.823564017794535141e-01 5.381334366106255759e-04 7.813048116943254948e-04
4.679999999999999915e-04 4.390986251953180042e-01 5.832692638200615834e-04 8.096035963157804938e-04
5.341000000000000261e-04 5.012024644415256081e-01 6.346556894078133086e-04 8.452514814113673558e-04
6.059000000000000366e-04 5.686690698184251325e-01 6.930641302632923034e-04 8.862253587289389486e-04
7.661000000000000275e-04 7.192254882508629654e-01 8.328184776562496576e-04 9.702780530519144065e-04
1.262000000000000101e-03 1.185459127778160093e+00 1.338484980802662205e-03 1.198863597978450275e-03
1.894999999999999983e-03 1.780909071169781921e+00 2.123481960401060308e-03 1.437771491635827115e-03
2.673000000000000029e-03 2.513147344746868850e+00 3.261860252001994032e-03 1.671524566936786766e-03
3.605999999999999830e-03 3.391736073717691369e+00 4.828136641022434151e-03 1.893900408978071038e-03
4.709999999999999777e-03 4.431905410739045870e+00 6.903512974832482635e-03 2.096551352830673849e-03
7.496000000000000059e-03 7.058993649504918366e+00 1.289742191321638018e-02 2.466596387205546859e-03
1.119999999999999989e-02 1.055540362104863661e+01 2.212077014004794340e-02 2.809304433764861584e-03
1.600000000000000033e-02 1.509117352747679952e+01 3.559566804390756900e-02 3.132325055719984222e-03
2.206999999999999934e-02 2.083310616724802244e+01 5.457322122755020599e-02 3.477840948757840792e-03
2.947999999999999926e-02 2.785007348564149154e+01 8.049103664263126956e-02 3.909302116317729670e-03
4.268000000000000266e-02 4.036707211535221518e+01 1.353887601042819133e-01 4.862066536253286525e-03
6.219999999999999835e-02 5.891246509830522626e+01 2.419691225623893105e-01 6.630786177272363080e-03
7.316999999999999893e-02 6.935151695866235855e+01 3.161896974764099033e-01 7.588671314871411888e-03
7.595999999999999974e-02 7.200836722020332559e+01 3.371250777904805096e-01 8.170805199905810390e-03
7.685877551020407761e-02 7.286441680341788185e+01 3.442066939356650535e-01 8.374060171659201621e-03
7.775755102040816935e-02 7.372055022298178528e+01 3.514639904902622791e-01 8.579589130172133801e-03
7.865632653061224722e-02 7.457676855163282426e+01 3.588988943464984649e-01 8.787243238863859385e-03
7.955510204081632508e-02 7.543307285889271441e+01 3.665132061435690813e-01 8.996873661153637763e-03
8.045387755102040295e-02 7.628946420974938292e+01 3.743086002152658520e-01 9.208331560460730064e-03
8.135265306122449469e-02 7.714594366339736098e+01 3.822866245350959868e-01 9.421468100204393945e-03
8.225142857142857256e-02 7.800251227203317228e+01 3.904487006589139608e-01 9.636134443803873184e-03
8.315020408163265042e-02 7.885917107970360007e+01 3.987961236650955366e-01 9.852181754678435849e-03
8.404897959183672829e-02 7.971592112120157481e+01 4.073300620922843396e-01 1.006946119624733786e-02
8.494775510204082003e-02 8.057276342101029343e+01 4.160515578747508436e-01 1.028782393192983688e-02
8.584653061224489790e-02 8.142969899228987174e+01 4.249615262754054545e-01 1.050712112514518362e-02
8.674530612244897576e-02 8.228672883590675724e+01 4.340607558165145430e-01 1.072720393931263748e-02
8.764408163265305363e-02 8.314385393950209391e+01 4.433499082081683862e-01 1.094792353785145785e-02
8.854285714285714537e-02 8.400107527659777418e+01 4.528295182745583070e-01 1.116913108418090585e-02
8.944163265306122323e-02 8.485839380573780488e+01 4.624999938781201303e-01 1.139067774172022526e-02
9.034040816326530110e-02 8.571581046966403505e+01 4.723616158416086286e-01 1.161241467388868416e-02
9.123918367346939284e-02 8.657332619452280653e+01 4.824145378681659602e-01 1.183419304410553326e-02
9.213795918367347071e-02 8.743094188910323794e+01 4.926587864594532129e-01 1.205586401579003368e-02
9.303673469387754857e-02 8.828865844410367458e+01 5.030942608319185494e-01 1.227727875236143615e-02
9.393551020408162644e-02 8.914647673142593476e+01 5.137207328312726196e-01 1.249828841723900526e-02
9.483428571428570431e-02 9.000439760349571827e+01 5.245378468452505105e-01 1.271874417384199173e-02
9.573306122448979605e-02 9.086242189260792657e+01 5.355451197147378384e-01 1.293849718558965842e-02
9.663183673469387391e-02 9.172055041029571498e+01 5.467419406433419171e-01 1.315739861590125778e-02
9.753061224489795178e-02 9.257878394672226818e+01 5.581275711054936028e-01 1.337529962819604054e-02
9.842938775510204352e-02 9.343712327009373553e+01 5.697011447531621364e-01 1.359205138589328343e-02
9.932816326530612139e-02 9.429556912609365327e+01 5.814616673212711362e-01 1.380750505241221809e-02
1.002269387755101993e-01 9.515412223733591190e+01 5.934080165319075562e-01 1.402151179117211779e-02
1.011257142857142910e-01 9.601278330283714979e+01 6.055389419974100962e-01 1.423392276559224019e-02
1.020244897959183689e-01 9.687155299750688187e+01 6.178530651224320991e-01 1.444458913909183080e-02
1.029232653061224467e-01 9.773043197165466722e+01 6.303488790050731927e-01 1.465336207509015422e-02
1.038220408163265246e-01 9.858942085051381810e+01 6.430247483371736017e-01 1.486009273700646463e-02
1.047208163265306025e-01 9.944852023378024342e+01 6.558789093038689400e-01 1.506463228826001796e-02
1.056195918367346942e-01 1.003077306951669669e+02 6.689094694825037379e-01 1.526683189227007881e-02
1.065183673469387721e-01 1.011670527819723304e+02 6.821144077410022932e-01 1.546654271245589615e-02
1.074171428571428499e-01 1.020264870146623082e+02 6.954915741357999837e-01 1.566361591223672939e-02
1.083159183673469417e-01 1.028860338864657109e+02 7.090386898094337420e-01 1.585790265503183097e-02
1.092146938775510195e-01 1.037456938629822361e+02 7.227533468878959422e-01 1.604925410426046375e-02
1.101134693877550974e-01 1.046054673818020717e+02 7.366330083778579452e-01 1.623752142334188367e-02
1.110122448979591891e-01 1.054653548521377360e+02 7.506750080638650013e-01 1.642255577569534664e-02
1.119110204081632531e-01 1.063253566544664466e+02 7.648765504056097564e-01 1.660420832474011205e-02
1.128097959183673449e-01 1.071854731401836887e+02 7.792347104353946063e-01 1.678233023389542888e-02
1.137085714285714227e-01 1.080457046312662328e+02 7.937464336558833766e-01 1.695677266658056001e-02
1.146073469387755006e-01 1.089060514199460812e+02 8.084085359382604530e-01 1.712738678621476135e-02
1.155061224489795924e-01 1.097665137683928975e+02 8.232177034208997268e-01 1.729402375621729229e-02
1.164048979591836702e-01 1.106270919084055322e+02 8.381704924086558206e-01 1.745653474000739835e-02
1.173036734693877481e-01 1.114877860411135941e+02 8.532633292728922791e-01 1.761477090100435627e-02
1.182024489795918398e-01 1.123485963366853611e+02 8.684925103523529755e-01 1.776858340262740810e-02
1.191012244897959177e-01 1.132095229340460207e+02 8.838542018549927493e-01 1.791782340829580975e-02
1.199999999999999956e-01 1.140705659406014689e+02 8.993444397608818530e-01 1.806234208142882408e-02
1.229224293794969336e-01 1.168711131402827732e+02 9.505602568781885697e-01 1.851316777923203011e-02
1.258448587589938716e-01 1.196728935281408468e+02 1.003085847861080016e+00 1.898119786356060323e-02
1.287672881384908097e-01 1.224759094592769770e+02 1.056971273689930824e+00 1.946690199293221041e-02
1.316897175179877755e-01 1.252801643341469884e+02 1.112268003341993827e+00 1.997075147903295059e-02
1.346121468974847135e-01 1.280856625603282168e+02 1.169028925731304902e+00 2.049322167369673972e-02
1.375345762769816516e-01 1.308924095179395977e+02 1.227308368324958376e+00 2.103479419672598175e-02
1.404570056564785896e-01 1.337004115284639170e+02 1.287162122027884603e+00 2.159595901588566916e-02
1.433794350359755276e-01 1.365096758267442851e+02 1.348647471957924671e+00 2.217721638921589869e-02
1.463018644154724657e-01 1.393202105359475809e+02 1.411823233759660567e+00 2.277907867874965145e-02
1.492242937949694315e-01 1.421320246453074958e+02 1.476749795129480791e+00 2.340207204377392838e-02
1.521467231744663695e-01 1.449451279904713772e+02 1.543489162245987867e+00 2.404673802092389609e-02
1.550691525539633076e-01 1.477595312362940945e+02 1.612105010819355755e+00 2.471363499763575000e-02
1.579915819334602456e-01 1.505752458619330696e+02 1.682662741490779545e+00 2.540333958479586499e-02
1.609140113129571836e-01 1.533922841481073647e+02 1.755229539328989619e+00 2.611644789380330664e-02
1.638364406924541217e-01 1.562106591663999211e+02 1.829874437185027070e+00 2.685357672270174967e-02
1.667588700719510597e-01 1.590303847704841758e+02 1.906668382679280516e+00 2.761536465552912392e-02
1.696812994514480255e-01 1.618514755891708603e+02 1.985684308606305182e+00 2.840247307857347164e-02
1.726037288309449635e-01 1.646739470211729497e+02 2.066997206553266686e+00 2.921558711680607295e-02
1.755261582104419016e-01 1.674978152314987199e+02 2.150684203537147177e+00 3.005541649338498711e-02
1.784485875899388396e-01 1.703230971493833295e+02 2.236824641474130182e+00 3.092269631477867486e-02
1.813710169694357777e-01 1.731498104676797425e+02 2.325500159302023473e+00 3.181818778374725237e-02
1.842934463489327435e-01 1.759779736436314295e+02 2.416794777583204823e+00 3.274267884213709345e-02
1.872158757284296815e-01 1.788076059009570997e+02 2.510794985421472614e+00 3.369698474518809800e-02
1.901383051079266195e-01 1.816387272331780025e+02 2.607589829531450132e+00 3.468194856882034910e-02
1.930607344874235576e-01 1.844713584081243312e+02 2.707271005303818256e+00 3.569844165115874240e-02
1.959831638669204956e-01 1.873055209735624658e+02 2.809932949713795480e+00 3.674736396936416349e-02
1.989055932464174337e-01 1.901412372638837098e+02 2.915672935923903530e+00 3.782964445267081310e-02
2.018280226259143717e-01 1.929785304078009744e+02 3.024591169435254745e+00 3.894624123237704072e-02
2.047504520054113097e-01 1.958174243370026488e+02 3.136790885644400895e+00 4.009814182940242555e-02
2.076728813849082478e-01 1.986579437957126686e+02 3.252378448665243837e+00 4.128636327990375943e-02
2.105953107644052136e-01 2.015001143511121597e+02 3.371463451277650680e+00 4.251195219933823211e-02
2.135177401439021516e-01 2.043439624045752510e+02 3.494158815866277301e+00 4.377598478527038039e-02
2.164401695233990897e-01 2.071895152036774448e+02 3.620580896214763200e+00 4.507956675914238237e-02
2.193625989028960555e-01 2.100368008549340573e+02 3.750849580021838658e+00 4.642383324716074788e-02
2.222850282823929935e-01 2.128858483372302146e+02 3.885088392007160607e+00 4.780994860039921440e-02
2.252074576618899315e-01 2.157366875159025881e+02 4.023424597475785625e+00 4.923910615417514958e-02
2.281298870413868696e-01 2.185893491574347820e+02 4.165989306211113075e+00 5.071252792672416992e-02
2.310523164208838076e-01 2.214438649447337468e+02 4.312917576567047995e+00 5.223146425717661162e-02
2.339747458003807457e-01 2.243002674929485636e+02 4.464348519630870094e+00 5.379719338282724916e-02
2.368971751798776837e-01 2.271585903658001371e+02 4.620425403329055491e+00 5.541102095568643110e-02
2.398196045593746217e-01 2.300188680923875779e+02 4.781295756348955095e+00 5.707427949830748415e-02
2.427420339388715598e-01 2.328811361844396686e+02 4.947111471749931155e+00 5.878832779889897608e-02
2.456644633183685256e-01 2.357454311539804621e+02 5.118028910138185061e+00 6.055455024575392281e-02
2.485868926978654636e-01 2.386117905313769825e+02 5.294209002280201304e+00 6.237435610105622474e-02
2.515093220773624294e-01 2.414802528837428213e+02 5.475817351030452862e+00 6.424917871416400972e-02
2.544317514568593674e-01 2.443508578336614505e+02 5.663024332449690945e+00 6.618047467451153298e-02
2.573541808363563055e-01 2.472236460782100380e+02 5.856005195991013323e+00 6.816972290432334047e-02
2.602766102158532435e-01 2.500986594082471584e+02 6.054940163631677308e+00 7.021842369138862894e-02
2.631990395953501816e-01 2.529759407279414631e+02 6.260014527829590669e+00 7.232809766220710257e-02
3.394602836852410044e-01 3.301105108218885107e+02 2.472031434276619777e+01 3.950084403564654290e-01
4.157215277751318272e-01 4.135925030871520107e+02 6.390549713425690470e+01 5.352272669391787696e-01
4.919827718650225945e-01 5.053128002652921964e+02 1.108852221705153056e+02 4.928714172689505624e-01
5.682440159549133618e-01 6.043214259028436572e+02 1.574526728549172958e+02 4.505155675987223551e-01
6.445052600448042401e-01 7.095039785442834273e+02 2.025046721329962907e+02 4.081597179284941479e-01
7.207665041346950074e-01 8.198923308596761217e+02 2.451382279856039190e+02 3.658038682582659407e-01
7.970277482245858858e-01 9.346372447387138891e+02 2.846156022977771158e+02 3.234480185880376224e-01
8.732889923144766531e-01 1.052988617980048730e+03 3.203377982096366168e+02 2.810921689178094152e-01
9.495502364043674204e-01 1.174280608032078817e+03 3.518236557361022960e+02 2.387363192475812079e-01
1.025811480494258188e+00 1.297920041540857028e+03 3.786928987402750408e+02 1.963804695773530007e-01
1.102072724584149066e+00 1.423377134713482974e+03 4.006520916120894640e+02 1.540246199071247379e-01
1.178333968674039944e+00 1.550177897664166267e+03 4.174828158635415321e+02 1.116687702368964752e-01
1.254595212763930601e+00 1.677897803244519309e+03 4.290315897464351451e+02 6.931292056666832346e-02
1.330856456853821701e+00 1.806675746170190450e+03 4.569120850163154159e+02 3.614555405128788146e-01
1.407117700943712357e+00 1.937893201903628551e+03 5.158105261386760958e+02 5.332481905289034874e-01
1.483378945033603014e+00 2.072728455346421924e+03 5.833829827727678321e+02 4.703853302533200775e-01
1.559640189123494114e+00 2.210915587458262507e+03 6.480331759597453356e+02 4.654615481679554856e-01
1.635901433213384770e+00 2.352284459967862858e+03 7.134767682523796566e+02 4.605377660825908936e-01
1.712162677303275427e+00 2.496721724586333494e+03 7.796304422599338295e+02 4.556139839972263017e-01
1.788423921393166527e+00 2.644120528642180943e+03 8.464155071524452296e+02 4.506902019118617098e-01
1.864685165483057183e+00 2.794379871660776189e+03 9.137574807717522845e+02 4.457664198264971178e-01
1.940946409572947839e+00 2.947431943331615912e+03 9.841419001179245925e+02 4.736479658063904585e-01
2.017207653662838940e+00 3.103370966956367738e+03 1.061537238179691485e+03 5.183939709103208004e-01
2.093468897752729596e+00 3.262393849425224289e+03 1.147582793988881576e+03 5.631399760142508093e-01
