# density  energy_density  pressure   sound_speed_squared  [All in nuclear units]
2.720000000000000022e-14 2.529924618736292620e-11 1.061056609100270887e-19 3.766610435412189122e-08
1.269999999999999890e-13 1.181251617980081254e-10 4.870113551826584858e-18 6.497781477172163475e-08
6.929999999999999754e-13 6.445728594625782745e-10 1.018299070687946017e-16 3.033770597342807186e-07
6.295000000000000137e-12 5.855111460395753757e-09 5.487150723824490656e-15 1.763710043904196507e-06
1.581000000000000150e-11 1.470523320212576141e-08 2.904239460150760759e-14 3.559434472327477622e-06
3.971999999999999958e-11 3.694456170323160790e-08 1.439340266754906811e-13 6.772854871245677111e-06
9.975999999999999982e-11 9.278976412613005154e-08 6.812143616221268841e-13 1.246890511177539320e-05
2.505999999999999928e-10 2.330928829758143313e-07 3.107749196951638608e-12 2.212095130576091967e-05
6.294000000000000186e-10 5.854398883216247602e-07 1.363250409771533549e-11 3.761981047239428883e-05
1.581000000000000021e-09 1.470619631082054101e-06 5.726014178088476303e-11 6.095350986710739404e-05
3.971999999999999932e-09 3.694861084648016046e-06 2.210019573374265380e-10 8.628023653304385055e-05
5.000000000000000105e-09 4.651201787816927976e-06 3.071485916280120014e-10 9.387863480799757518e-05
9.975999999999999465e-09 9.280587964640925786e-06 8.385361004129998845e-10 1.356922228656245837e-04
1.989999999999999952e-08 1.851419242998081003e-05 2.287763168863418088e-09 1.782101978513718314e-04
3.972999999999999908e-08 3.696699295748789187e-05 6.061583099087538954e-09 2.308134738384234820e-04
7.925999999999999637e-08 7.375765469301719828e-05 1.575347858094044765e-08 2.960532096713864875e-04
1.580999999999999930e-07 1.471491184379128891e-04 3.910429618672550719e-08 3.402859755131850544e-04
1.991000000000000027e-07 1.853209783927820692e-04 5.252045687899177454e-08 3.626488188833278743e-04
3.155999999999999938e-07 2.938002528823880299e-04 9.730770378831954314e-08 4.630767356912104081e-04
5.000999999999999849e-07 4.656344063839075714e-04 1.837494945860225819e-07 5.430301232045120323e-04
6.295999999999999732e-07 5.862651417037388971e-04 2.503103884558263872e-07 5.605192962670089638e-04
9.666999999999999941e-07 9.003386739730535665e-04 4.324450868778576936e-07 5.993081670211623108e-04
1.531999999999999901e-06 1.427170885631398036e-03 7.780217275717420968e-07 7.125938556504039095e-04
2.506999999999999883e-06 2.336134972129507662e-03 1.471005394641589826e-06 8.121876172121876309e-04
3.974000000000000407e-06 3.704315759716615697e-03 2.695705763844323844e-06 9.780674166779417152e-04
4.830000000000000343e-06 4.502887798316278223e-03 3.503988717694660908e-06 1.046253037768318664e-03
6.080999999999999885e-06 5.670217999231269741e-03 4.731126407333307547e-06 1.056224360839501646e-03
7.930000000000000308e-06 7.396012414119570652e-03 6.599662989063778187e-06 1.109203753630785610e-03
9.982000000000000313e-06 9.311815711689977113e-03 8.879881089227186733e-06 1.271216815433141075e-03
1.256999999999999993e-05 1.172874412604260098e-02 1.207676739913533738e-05 1.374195438212825332e-03
1.521999999999999997e-05 1.420427250933824909e-02 1.547541302213394990e-05 1.371610497379100249e-03
1.991000000000000080e-05 1.858690797761085312e-02 2.160710455847765458e-05 1.426578142835871997e-03
2.506999999999999883e-05 2.341050104039446925e-02 2.908031724375689851e-05 1.672007475975408053e-03
2.790999999999999875e-05 2.606604784714952258e-02 3.357009132255487721e-05 1.709425557744154774e-03
3.806999999999999973e-05 3.556967988784798945e-02 4.986781576435106434e-05 1.720407281314112165e-03
5.063000000000000145e-05 4.732434580343149871e-02 7.073400252905581275e-05 1.829889149838781265e-03
6.592000000000000583e-05 6.164112392498975052e-02 9.765037643900635188e-05 1.930242980462695823e-03
8.433000000000000066e-05 7.888776783401378612e-02 1.317235490470395893e-04 2.021055815200022837e-03
1.062000000000000064e-04 9.938561165478684845e-02 1.740088341640037047e-04 2.104789529260958983e-03
1.321000000000000126e-04 1.236720406455826121e-01 2.260189757651373944e-04 2.178291718403657477e-03
1.623999999999999901e-04 1.520974545104751274e-01 2.888169908545388338e-04 2.240170365918073281e-03
1.689999999999999879e-04 1.582907717069566844e-01 3.027354772999506964e-04 2.254509350360745651e-03
1.758999999999999930e-04 1.647661861691531171e-01 3.173785841705756782e-04 2.268169273277113179e-03
1.830000000000000029e-04 1.714298948183871907e-01 3.325196584577469103e-04 2.276170334580628063e-03
1.901999999999999882e-04 1.781880600978280049e-01 3.479577791899843742e-04 2.292561569242367037e-03
1.977000000000000079e-04 1.852284385240466902e-01 3.641242634600037713e-04 2.299943765467868384e-03
2.054000000000000053e-04 1.924572004474696396e-01 3.808304060475003897e-04 2.322187632288155723e-03
2.079000000000000119e-04 1.948043378760714872e-01 3.864137987380476553e-04 2.435429768083530178e-03
2.081999999999999921e-04 1.950859988578999005e-01 3.870314100985603909e-04 1.950065624557156818e-03
2.090999999999999868e-04 1.959309855029948977e-01 3.881261957135444685e-04 6.411875526909013856e-04
2.159999999999999919e-04 2.024093317906446865e-01 3.940874488768042125e-04 1.199166870571831411e-03
2.231000000000000019e-04 2.090756740932291913e-01 4.013938420547467825e-04 9.928616047829054436e-04
2.311000000000000066e-04 2.165873044433437034e-01 4.085241694843774404e-04 9.056166966301716637e-04
2.401000000000000085e-04 2.250381721984245909e-01 4.159700687886608468e-04 8.565463878902855599e-04
2.500000000000000052e-04 2.343344406330727658e-01 4.237602369176299592e-04 8.194318812157330018e-04
2.642999999999999733e-04 2.477629128650125634e-01 4.345596643180389446e-04 7.890063723638815647e-04
3.052999999999999941e-04 2.862671839140227270e-01 4.644058706720978241e-04 7.612775562167708662e-04
3.533000000000000224e-04 3.313503829113090826e-01 4.987577676308450197e-04 7.626578558207241024e-04
4.075999999999999871e-04 3.823564017794535141e-01 5.381334366106255759e-04 7.813048116943254948e-04
4.679999999999999915e-04 4.390986251953180042e-01 5.832692638200615834e-04 8.096035963157804938e-04
5.341000000000000261e-04 5.012024644415256081e-01 6.346556894078133086e-04 8.452514814113673558e-04
6.059000000000000366e-04 5.686690698184251325e-01 6.930641302632923034e-04 8.862253587289389486e-04
7.661000000000000275e-04 7.192254882508629654e-01 8.328184776562496576e-04 9.702780530519144065e-04
1.262000000000000101e-03 1.185459127778160093e+00 1.338484980802662205e-03 1.198863597978450275e-03
1.894999999999999983e-03 1.780909071169781921e+00 2.123481960401060308e-03 1.437771491635827115e-03
2.673000000000000029e-03 2.513147344746868850e+00 3.261860252001994032e-03 1.671524566936786766e-03
3.605999999999999830e-03 3.391736073717691369e+00 4.828136641022434151e-03 1.893900408978071038e-03
4.709999999999999777e-03 4.431905410739045870e+00 6.903512974832482635e-03 2.096551352830673849e-03
7.496000000000000059e-03 7.058993649504918366e+00 1.289742191321638018e-02 2.466596387205546859e-03
1.119999999999999989e-02 1.055540362104863661e+01 2.212077014004794340e-02 2.809304433764861584e-03
1.600000000000000033e-02 1.509117352747679952e+01 3.559566804390756900e-02 3.132325055719984222e-03
2.206999999999999934e-02 2.083310616724802244e+01 5.457322122755020599e-02 3.477840948757840792e-03
2.947999999999999926e-02 2.785007348564149154e+01 8.049103664263126956e-02 3.909302116317729670e-03
4.268000000000000266e-02 4.036707211535221518e+01 1.353887601042819133e-01 4.862066536253286525e-03
6.219999999999999835e-02 5.891246509830522626e+01 2.419691225623893105e-01 6.630786177272363080e-03
7.316999999999999893e-02 6.935151695866235855e+01 3.161896974764099033e-01 7.588671314871411888e-03
7.595999999999999974e-02 7.200836722020332559e+01 3.371250777904805096e-01 8.170805199905812125e-03
7.685877551020407761e-02 7.286441676072672635e+01 3.441993880876691447e-01 8.356993089773404049e-03
7.775755102040816935e-02 7.372054993992993843e+01 3.514300655577231591e-01 8.534477938290369395e-03
7.865632653061224722e-02 7.457676755703501215e+01 3.588099083306904302e-01 8.703756140109314768e-03
7.955510204081632508e-02 7.543307031310270361e+01 3.663321370136263244e-01 8.865324089882851977e-03
8.045387755102040295e-02 7.628945881913406879e+01 3.739903948311514292e-01 9.019678182263594565e-03
8.135265306122449469e-02 7.714593360381171294e+01 3.817787477796693030e-01 9.167314811904150873e-03
8.225142857142857256e-02 7.800249512089997950e+01 3.896916847933536432e-01 9.308730373457127505e-03
8.315020408163265042e-02 7.885914375632449946e+01 3.977241179202107846e-01 9.444421261575141474e-03
8.404897959183672829e-02 7.971587983494671903e+01 4.058713825066982972e-01 9.574883870910799386e-03
8.494775510204082003e-02 8.057270362705139632e+01 4.141292373895522072e-01 9.700614596116714783e-03
8.584653061224489790e-02 8.142961535456055344e+01 4.224938650936270745e-01 9.822109831845494271e-03
8.674530612244897576e-02 8.228661519699031146e+01 4.309618720347019871e-01 9.939865972749747924e-03
8.764408163265305363e-02 8.314370329716251717e+01 4.395302887263364267e-01 1.005437941348208755e-02
8.854285714285714537e-02 8.400087976668383760e+01 4.481965699899908562e-01 1.016614654869512843e-02
8.944163265306122323e-02 8.485814469120526837e+01 4.569585951677412328e-01 1.027566377304147197e-02
9.034040816326530110e-02 8.571549813547157726e+01 4.658146683370315011e-01 1.038342748117373517e-02
9.123918367346939284e-02 8.657294014817252048e+01 4.747635185270066560e-01 1.048993406774452464e-02
9.213795918367347071e-02 8.743047076660467098e+01 4.838042999360698260e-01 1.059567992740645392e-02
9.303673469387754857e-02 8.828809002115359306e+01 4.929365921503975345e-01 1.070116145481213137e-02
9.393551020408162644e-02 8.914579793960500353e+01 5.021604003632298419e-01 1.080687504461417224e-02
9.483428571428570431e-02 9.000359455129277819e+01 5.114761555948356131e-01 1.091331709146517275e-02
9.573306122448979605e-02 9.086147989109198875e+01 5.208847149131271559e-01 1.102098399001776204e-02
9.663183673469387391e-02 9.171945400326400488e+01 5.303873616549683589e-01 1.113037213492453804e-02
9.753061224489795178e-02 9.257751694516042562e+01 5.399858056482907953e-01 1.124197792083811431e-02
9.842938775510204352e-02 9.343566879079271814e+01 5.496821834351891534e-01 1.135629774241110612e-02
9.932816326530612139e-02 9.429390963427347572e+01 5.594790584962332503e-01 1.147382799429611661e-02
1.002269387755101993e-01 9.515223959313520652e+01 5.693794214762856187e-01 1.159506507114575757e-02
1.011257142857142910e-01 9.601065881153176917e+01 5.793866904121672823e-01 1.172050536761264604e-02
1.020244897959183689e-01 9.686916746332826733e+01 5.895047109625641824e-01 1.185064527834938340e-02
1.029232653061224467e-01 9.772776575508429175e+01 5.997377566406159044e-01 1.198598119800858147e-02
1.038220408163265246e-01 9.858645392893457426e+01 6.100905290496688727e-01 1.212700952124285900e-02
1.047208163265306025e-01 9.944523226537214100e+01 6.205681581227215915e-01 1.227422664270481564e-02
1.056195918367346942e-01 1.003041010859379725e+02 6.311762023661294796e-01 1.242812895704707189e-02
1.065183673469387721e-01 1.011630607558213768e+02 6.419206491081708155e-01 1.258921285892223088e-02
1.074171428571428499e-01 1.020221116863743447e+02 6.528079147531185011e-01 1.275797474298290268e-02
1.083159183673469417e-01 1.028812543375439219e+02 6.638448450414878854e-01 1.293491100388170084e-02
1.092146938775510195e-01 1.037404892202265358e+02 6.750387153171687471e-01 1.312051803627123717e-02
1.101134693877550974e-01 1.045998168985466492e+02 6.863972308021808466e-01 1.331529223480412000e-02
1.110122448979591891e-01 1.054592379920629384e+02 6.979285268798168795e-01 1.351972999413296114e-02
1.119110204081632531e-01 1.063187531779062738e+02 7.096411693869684179e-01 1.373432770891036547e-02
1.128097959183673449e-01 1.071783631928502842e+02 7.215441549164592905e-01 1.395958177378895000e-02
1.137085714285714227e-01 1.080380688353194927e+02 7.336469111302248436e-01 1.419598858342132480e-02
1.146073469387755006e-01 1.088978709673356775e+02 7.459592970842178206e-01 1.444404453246009128e-02
1.155061224489795924e-01 1.097577705164060546e+02 7.584916035659262645e-01 1.470424601555787511e-02
1.164048979591836702e-01 1.106177684773552414e+02 7.712545534454228191e-01 1.497708942736727424e-02
1.173036734693877481e-01 1.114778659141037735e+02 7.842593020408826776e-01 1.526307116254090046e-02
1.182024489795918398e-01 1.123380639613943686e+02 7.975174374995249726e-01 1.556268761573137427e-02
1.191012244897959177e-01 1.131983638264690910e+02 8.110409811949546022e-01 1.587643518159129533e-02
1.199999999999999956e-01 1.140587667906990248e+02 8.248423881419019166e-01 1.620481025477327544e-02
1.210462380217435518e-01 1.150604682017412870e+02 8.412744366093081183e-01 1.660344084632621800e-02
1.220924760434871220e-01 1.160623133900086543e+02 8.581123823737630829e-01 1.701040032782038386e-02
1.231387140652306783e-01 1.170643046381887871e+02 8.753647666781364522e-01 1.742576982370443520e-02
1.241849520869742346e-01 1.180664442631263427e+02 8.930402193551293388e-01 1.784963086954637068e-02
1.252311901087178048e-01 1.190687346157075410e+02 9.111474594578726771e-01 1.828206540898150850e-02
1.262774281304613611e-01 1.200711780807557858e+02 9.296952958924137311e-01 1.872315579049489351e-02
1.273236661522049173e-01 1.210737770769348316e+02 9.486926280519980548e-01 1.917298476403949889e-02
1.283699041739484736e-01 1.220765340566604777e+02 9.681484464530500933e-01 1.963163547749375085e-02
1.294161421956920299e-01 1.230794515060209875e+02 9.880718333727686042e-01 2.009919147296258812e-02
1.304623802174355862e-01 1.240825319447047832e+02 1.008471963488251077e+00 2.057573668292396810e-02
1.315086182391791703e-01 1.250857779259351332e+02 1.029358104517067218e+00 2.106135542622303292e-02
1.325548562609227266e-01 1.260891920364130812e+02 1.050739617859200115e+00 2.155613240391829680e-02
1.336010942826662828e-01 1.270927768962663862e+02 1.072625959240290694e+00 2.206015269498030201e-02
1.346473323044098391e-01 1.280965351590051853e+02 1.095026679356100097e+00 2.257350175184694163e-02
1.356935703261533954e-01 1.291004695114848744e+02 1.117951424518133230e+00 2.309626539583579247e-02
1.367398083478969517e-01 1.301045826738738924e+02 1.141409937300351229e+00 2.362852981241805872e-02
1.377860463696405080e-01 1.311088773996281986e+02 1.165412057186911987e+00 2.417038154635343938e-02
1.388322843913840643e-01 1.321133564754714769e+02 1.189967721220878349e+00 2.472190749668980170e-02
1.398785224131276483e-01 1.331180227213804983e+02 1.215086964653833812e+00 2.528319491162905885e-02
1.409247604348712046e-01 1.341228789905759129e+02 1.240779921596349311e+00 2.585433138326089994e-02
1.419709984566147609e-01 1.351279281695181567e+02 1.267056825669254483e+00 2.643540484216601663e-02
1.430172364783583172e-01 1.361331731779085601e+02 1.293928010655649441e+00 2.702650355189035319e-02
1.440634745001018735e-01 1.371386169686943788e+02 1.321403911153617328e+00 2.762771610329318658e-02
1.451097125218454298e-01 1.381442625280794800e+02 1.349495063229586345e+00 2.823913140876846070e-02
1.461559505435889861e-01 1.391501128755387526e+02 1.378212105072295079e+00 2.886083869634281998e-02
1.472021885653325701e-01 1.401561710638368368e+02 1.407565777647318495e+00 2.949292750365041862e-02
1.482484265870761264e-01 1.411624401790510035e+02 1.437566925352107505e+00 3.013548767178689594e-02
1.492946646088196827e-01 1.421689233405986101e+02 1.468226496671512615e+00 3.078860933904288208e-02
1.503409026305632390e-01 1.431756237012673409e+02 1.499555544833737653e+00 3.145238293451910888e-02
1.513871406523067953e-01 1.441825444472502227e+02 1.531565228466698070e+00 3.212689917162380587e-02
1.524333786740503516e-01 1.451896887981827149e+02 1.564266812254740291e+00 3.281224904145400162e-02
1.534796166957939079e-01 1.461970600071856552e+02 1.597671667595692568e+00 3.350852380606158393e-02
1.545258547175374919e-01 1.472046613609089434e+02 1.631791273258210717e+00 3.421581499160547546e-02
1.555720927392810482e-01 1.482124961795803699e+02 1.666637216039384084e+00 3.493421438139081292e-02
1.566183307610246045e-01 1.492205678170562919e+02 1.702221191422582658e+00 3.566381400879654884e-02
1.576645687827681608e-01 1.502288796608767427e+02 1.738555004235500023e+00 3.640470615009214900e-02
1.587108068045117171e-01 1.512374351323216217e+02 1.775650569308374171e+00 3.715698331714466923e-02
1.597570448262552734e-01 1.522462376864715168e+02 1.813519912132356193e+00 3.792073825001716914e-02
1.608032828479988297e-01 1.532552908122703741e+02 1.852175169518000653e+00 3.869606390945937863e-02
1.618495208697424137e-01 1.542645980325902997e+02 1.891628590253853215e+00 3.948305346929187332e-02
1.628957588914859700e-01 1.552741629043002831e+02 1.931892535765104890e+00 4.028180030868411948e-02
1.639419969132295263e-01 1.562839890183362286e+02 1.972979480772307781e+00 4.109239800432824830e-02
1.649882349349730826e-01 1.572940799997741692e+02 2.014902013950106152e+00 4.191494032250861479e-02
1.660344729567166389e-01 1.583044395079053288e+02 2.057672838585978159e+00 4.274952121106850855e-02
1.670807109784601951e-01 1.593150712363131163e+02 2.101304773238958923e+00 4.359623479126395473e-02
1.681269490002037514e-01 1.603259789129536728e+02 2.145810752398343180e+00 4.445517534957207223e-02
1.691731870219473355e-01 1.613371663002369019e+02 2.191203827142329086e+00 4.532643732928774705e-02
1.702194250436908918e-01 1.623486371951107401e+02 2.237497165796570542e+00 4.621011532213243483e-02
1.712656630654344481e-01 1.633603954291464504e+02 2.284704054592673117e+00 4.710630405970941265e-02
2.494030985130786249e-01 2.415171460978067159e+02 1.771231694582771610e+01 3.360821770449847756e-01
3.275405339607228017e-01 3.268161412935594399e+02 4.665435913376404642e+01 3.433305568436387789e-01
4.056779694083670340e-01 4.193285716341182479e+02 7.725300849091641453e+01 3.200171636083897209e-01
4.838154048560112108e-01 5.177462891131850711e+02 1.075385756194474283e+02 2.967037703731406628e-01
5.619528403036553321e-01 6.210089605552500416e+02 1.369259416510730034e+02 2.733903771378916603e-01
6.400902757512996200e-01 7.282816791211615737e+02 1.649663016815188428e+02 2.500769839026426022e-01
7.182277111989437968e-01 8.388857982298884508e+02 1.913081043771942120e+02 2.267635906673935720e-01
7.963651466465879736e-01 9.522567815621594036e+02 2.156727108182595316e+02 2.034501974321445417e-01
8.745025820942321504e-01 1.067916759973070384e+03 2.378381342854005140e+02 1.801368041968955114e-01
9.526400175418763272e-01 1.185513282665523548e+03 2.592327310770990607e+02 1.837336084806463210e-01
1.030777452989520615e+00 1.304914378649427590e+03 2.819325713374239513e+02 1.964177089450936109e-01
1.108914888437164681e+00 1.426106804567454674e+03 3.065102407718601398e+02 2.091018094095408730e-01
1.187052323884808747e+00 1.549098272794113200e+03 3.330128480066368297e+02 2.217859098739881074e-01
1.265189759332453256e+00 1.673898610885400558e+03 3.614882776110417808e+02 2.344700103384354528e-01
1.343327194780097322e+00 1.800519417352399159e+03 3.919852145401810617e+02 2.471541108028827149e-01
1.421464630227741388e+00 1.928973799181934965e+03 4.245531674676701641e+02 2.598382112673299771e-01
1.499602065675385898e+00 2.059276168499545747e+03 4.592424912120506519e+02 2.725223117317773225e-01
1.577739501123029964e+00 2.191442082874405514e+03 4.961044084354458050e+02 2.852064121962245569e-01
1.655876936570674030e+00 2.325488118396011487e+03 5.351910307668337055e+02 2.978905126606717912e-01
1.734014372018318095e+00 2.461431767746203604e+03 5.765553794784818820e+02 3.105746131251190811e-01
1.812151807465962605e+00 2.599291357604021414e+03 6.202514058235163930e+02 3.232587135895663710e-01
1.890289242913606671e+00 2.739085981193695716e+03 6.663340111252950919e+02 3.359428140540136609e-01
1.968426678361250737e+00 2.880835442831270939e+03 7.148590666949135084e+02 3.486269145184609508e-01
2.046564113808895247e+00 3.024560212078537006e+03 7.658834336413408437e+02 3.613110149829082962e-01
