# density  energy_density  pressure   sound_speed_squared  [All in nuclear units]
2.720000000000000022e-14 2.529924618736292620e-11 1.061056609100270887e-19 3.766610435412189122e-08
1.269999999999999890e-13 1.181251617980081254e-10 4.870113551826584858e-18 6.497781477172163475e-08
6.929999999999999754e-13 6.445728594625782745e-10 1.018299070687946017e-16 3.033770597342807186e-07
6.295000000000000137e-12 5.855111460395753757e-09 5.487150723824490656e-15 1.763710043904196507e-06
1.581000000000000150e-11 1.470523320212576141e-08 2.904239460150760759e-14 3.559434472327477622e-06
3.971999999999999958e-11 3.694456170323160790e-08 1.439340266754906811e-13 6.772854871245677111e-06
9.975999999999999982e-11 9.278976412613005154e-08 6.812143616221268841e-13 1.246890511177539320e-05
2.505999999999999928e-10 2.330928829758143313e-07 3.107749196951638608e-12 2.212095130576091967e-05
6.294000000000000186e-10 5.854398883216247602e-07 1.363250409771533549e-11 3.761981047239428883e-05
1.581000000000000021e-09 1.470619631082054101e-06 5.726014178088476303e-11 6.095350986710739404e-05
3.971999999999999932e-09 3.694861084648016046e-06 2.210019573374265380e-10 8.628023653304385055e-05
5.000000000000000105e-09 4.651201787816927976e-06 3.071485916280120014e-10 9.387863480799757518e-05
9.975999999999999465e-09 9.280587964640925786e-06 8.385361004129998845e-10 1.356922228656245837e-04
1.989999999999999952e-08 1.851419242998081003e-05 2.287763168863418088e-09 1.782101978513718314e-04
3.972999999999999908e-08 3.696699295748789187e-05 6.061583099087538954e-09 2.308134738384234820e-04
7.925999999999999637e-08 7.375765469301719828e-05 1.575347858094044765e-08 2.960532096713864875e-04
1.580999999999999930e-07 1.471491184379128891e-04 3.910429618672550719e-08 3.402859755131850544e-04
1.991000000000000027e-07 1.853209783927820692e-04 5.252045687899177454e-08 3.626488188833278743e-04
3.155999999999999938e-07 2.938002528823880299e-04 9.730770378831954314e-08 4.630767356912104081e-04
5.000999999999999849e-07 4.656344063839075714e-04 1.837494945860225819e-07 5.430301232045120323e-04
6.295999999999999732e-07 5.862651417037388971e-04 2.503103884558263872e-07 5.605192962670089638e-04
9.666999999999999941e-07 9.003386739730535665e-04 4.324450868778576936e-07 5.993081670211623108e-04
1.531999999999999901e-06 1.427170885631398036e-03 7.780217275717420968e-07 7.125938556504039095e-04
2.506999999999999883e-06 2.336134972129507662e-03 1.471005394641589826e-06 8.121876172121876309e-04
3.974000000000000407e-06 3.704315759716615697e-03 2.695705763844323844e-06 9.780674166779417152e-04
4.830000000000000343e-06 4.502887798316278223e-03 3.503988717694660908e-06 1.046253037768318664e-03
6.080999999999999885e-06 5.670217999231269741e-03 4.731126407333307547e-06 1.056224360839501646e-03
7.930000000000000308e-06 7.396012414119570652e-03 6.599662989063778187e-06 1.109203753630785610e-03
9.982000000000000313e-06 9.311815711689977113e-03 8.879881089227186733e-06 1.271216815433141075e-03
1.256999999999999993e-05 1.172874412604260098e-02 1.207676739913533738e-05 1.374195438212825332e-03
1.521999999999999997e-05 1.420427250933824909e-02 1.547541302213394990e-05 1.371610497379100249e-03
1.991000000000000080e-05 1.858690797761085312e-02 2.160710455847765458e-05 1.426578142835871997e-03
2.506999999999999883e-05 2.341050104039446925e-02 2.908031724375689851e-05 1.672007475975408053e-03
2.790999999999999875e-05 2.606604784714952258e-02 3.357009132255487721e-05 1.709425557744154774e-03
3.806999999999999973e-05 3.556967988784798945e-02 4.986781576435106434e-05 1.720407281314112165e-03
5.063000000000000145e-05 4.732434580343149871e-02 7.073400252905581275e-05 1.829889149838781265e-03
6.592000000000000583e-05 6.164112392498975052e-02 9.765037643900635188e-05 1.930242980462695823e-03
8.433000000000000066e-05 7.888776783401378612e-02 1.317235490470395893e-04 2.021055815200022837e-03
1.062000000000000064e-04 9.938561165478684845e-02 1.740088341640037047e-04 2.104789529260958983e-03
1.321000000000000126e-04 1.236720406455826121e-01 2.260189757651373944e-04 2.178291718403657477e-03
1.623999999999999901e-04 1.520974545104751274e-01 2.888169908545388338e-04 2.240170365918073281e-03
1.689999999999999879e-04 1.582907717069566844e-01 3.027354772999506964e-04 2.254509350360745651e-03
1.758999999999999930e-04 1.647661861691531171e-01 3.173785841705756782e-04 2.268169273277113179e-03
1.830000000000000029e-04 1.714298948183871907e-01 3.325196584577469103e-04 2.276170334580628063e-03
1.901999999999999882e-04 1.781880600978280049e-01 3.479577791899843742e-04 2.292561569242367037e-03
1.977000000000000079e-04 1.852284385240466902e-01 3.641242634600037713e-04 2.299943765467868384e-03
2.054000000000000053e-04 1.924572004474696396e-01 3.808304060475003897e-04 2.322187632288155723e-03
2.079000000000000119e-04 1.948043378760714872e-01 3.864137987380476553e-04 2.435429768083530178e-03
2.081999999999999921e-04 1.950859988578999005e-01 3.870314100985603909e-04 1.950065624557156818e-03
2.090999999999999868e-04 1.959309855029948977e-01 3.881261957135444685e-04 6.411875526909013856e-04
2.159999999999999919e-04 2.024093317906446865e-01 3.940874488768042125e-04 1.199166870571831411e-03
2.231000000000000019e-04 2.090756740932291913e-01 4.013938420547467825e-04 9.928616047829054436e-04
2.311000000000000066e-04 2.165873044433437034e-01 4.085241694843774404e-04 9.056166966301716637e-04
2.401000000000000085e-04 2.250381721984245909e-01 4.159700687886608468e-04 8.565463878902855599e-04
2.500000000000000052e-04 2.343344406330727658e-01 4.237602369176299592e-04 8.194318812157330018e-04
2.642999999999999733e-04 2.477629128650125634e-01 4.345596643180389446e-04 7.890063723638815647e-04
3.052999999999999941e-04 2.862671839140227270e-01 4.644058706720978241e-04 7.612775562167708662e-04
3.533000000000000224e-04 3.313503829113090826e-01 4.987577676308450197e-04 7.626578558207241024e-04
4.075999999999999871e-04 3.823564017794535141e-01 5.381334366106255759e-04 7.813048116943254948e-04
4.679999999999999915e-04 4.390986251953180042e-01 5.832692638200615834e-04 8.096035963157804938e-04
5.341000000000000261e-04 5.012024644415256081e-01 6.346556894078133086e-04 8.452514814113673558e-04
6.059000000000000366e-04 5.686690698184251325e-01 6.930641302632923034e-04 8.862253587289389486e-04
7.661000000000000275e-04 7.192254882508629654e-01 8.328184776562496576e-04 9.702780530519144065e-04
1.262000000000000101e-03 1.185459127778160093e+00 1.338484980802662205e-03 1.198863597978450275e-03
1.894999999999999983e-03 1.780909071169781921e+00 2.123481960401060308e-03 1.437771491635827115e-03
2.673000000000000029e-03 2.513147344746868850e+00 3.261860252001994032e-03 1.671524566936786766e-03
3.605999999999999830e-03 3.391736073717691369e+00 4.828136641022434151e-03 1.893900408978071038e-03
4.709999999999999777e-03 4.431905410739045870e+00 6.903512974832482635e-03 2.096551352830673849e-03
7.496000000000000059e-03 7.058993649504918366e+00 1.289742191321638018e-02 2.466596387205546859e-03
1.119999999999999989e-02 1.055540362104863661e+01 2.212077014004794340e-02 2.809304433764861584e-03
1.600000000000000033e-02 1.509117352747679952e+01 3.559566804390756900e-02 3.132325055719984222e-03
2.206999999999999934e-02 2.083310616724802244e+01 5.457322122755020599e-02 3.477840948757840792e-03
2.947999999999999926e-02 2.785007348564149154e+01 8.049103664263126956e-02 3.909302116317729670e-03
4.268000000000000266e-02 4.036707211535221518e+01 1.353887601042819133e-01 4.862066536253286525e-03
6.219999999999999835e-02 5.891246509830522626e+01 2.419691225623893105e-01 6.630786177272363080e-03
7.316999999999999893e-02 6.935151695866235855e+01 3.161896974764099033e-01 7.588671314871411888e-03
7.595999999999999974e-02 7.200836722020332559e+01 3.371250777904805096e-01 8.170805199905812125e-03
7.685877551020407761e-02 7.286441686036488363e+01 3.442164396113586711e-01 8.396826893088819507e-03
7.775755102040816935e-02 7.372055060128330695e+01 3.515093714414522785e-01 8.640061110490876092e-03
7.865632653061224722e-02 7.457676988427473930e+01 3.590183735364134154e-01 8.899831567487238165e-03
7.955510204081632508e-02 7.543307628015536181e+01 3.667573736336403045e-01 9.175461979453181094e-03
8.045387755102040295e-02 7.628947147838327680e+01 3.747397269042295198e-01 9.466276061763966368e-03
8.135265306122449469e-02 7.714595727668489644e+01 3.829782159029141431e-01 9.771597529794864151e-03
8.225142857142857256e-02 7.800253557113974523e+01 3.914850505125668234e-01 1.009075009892113420e-02
8.315020408163265042e-02 7.885920834669747137e+01 4.002718678802008601e-01 1.042305748451804667e-02
8.404897959183672829e-02 7.971597766810459973e+01 4.093497323417243927e-01 1.076784340196086306e-02
8.494775510204082003e-02 8.057284567121823216e+01 4.187291353330117594e-01 1.112443156662486395e-02
8.584653061224489790e-02 8.142981455468635943e+01 4.284199952851339144e-01 1.149214569388529519e-02
8.674530612244897576e-02 8.228688657197561440e+01 4.384316575018584738e-01 1.187030949911743044e-02
8.764408163265305363e-02 8.314406402372797800e+01 4.487728940177703185e-01 1.225824669769654332e-02
8.854285714285714537e-02 8.400134925042961243e+01 4.594519034355984410e-01 1.265528100499789879e-02
8.944163265306122323e-02 8.485874462537518070e+01 4.704763107415450007e-01 1.306073613639675314e-02
9.034040816326530110e-02 8.571625254791347004e+01 4.818531670976183845e-01 1.347393580726837306e-02
9.123918367346939284e-02 8.657387543695946874e+01 4.935889496101529272e-01 1.389420373298803912e-02
9.213795918367347071e-02 8.743161572475970900e+01 5.056895610738795233e-01 1.432086362893100068e-02
9.303673469387754857e-02 8.828947585089812833e+01 5.181603296910759493e-01 1.475323921047253309e-02
9.393551020408162644e-02 8.914745825653102429e+01 5.310060087654757677e-01 1.519065419298790132e-02
9.483428571428570431e-02 9.000556537883932151e+01 5.442307763707654455e-01 1.563243229185236338e-02
9.573306122448979605e-02 9.086379964568814671e+01 5.578382349936333862e-01 1.607789722244120159e-02
9.663183673469387391e-02 9.172216347048316720e+01 5.718314111514619658e-01 1.652637270012967050e-02
9.753061224489795178e-02 9.258065924721493900e+01 5.862127549848792363e-01 1.697718244029303505e-02
9.842938775510204352e-02 9.343928934568195643e+01 6.009841398254935907e-01 1.742965015830656716e-02
9.932816326530612139e-02 9.429805610688410411e+01 6.161468617392482638e-01 1.788309956954553179e-02
1.002269387755101993e-01 9.515696183857843948e+01 6.317016390459341268e-01 1.833685438938518694e-02
1.011257142857142910e-01 9.601600881099031426e+01 6.476486118154890503e-01 1.879023833320081494e-02
1.020244897959183689e-01 9.687519925267230292e+01 6.639873413418078130e-01 1.924257511636766685e-02
1.029232653061224467e-01 9.773453534650394658e+01 6.807168095948741282e-01 1.969318845426101111e-02
1.038220408163265246e-01 9.859401922582689792e+01 6.978354186520998592e-01 2.014140206225611962e-02
1.047208163265306025e-01 9.945365297070866006e+01 7.153409901098404244e-01 2.058653965572825387e-02
1.056195918367346942e-01 1.003134386043291073e+02 7.332307644761265619e-01 2.102792495005269269e-02
1.065183673469387721e-01 1.011733780894855670e+02 7.515014005457186785e-01 2.146488166060468022e-02
1.074171428571428499e-01 1.020334733252095987e+02 7.701489747586631740e-01 2.189673350275949532e-02
1.083159183673469417e-01 1.028937261434922590e+02 7.891689805435827543e-01 2.232280419189240639e-02
1.092146938775510195e-01 1.037541383061121962e+02 8.085563276470002503e-01 2.274241744337867493e-02
1.101134693877550974e-01 1.046147115015627946e+02 8.283053414500523015e-01 2.315489697259356244e-02
1.110122448979591891e-01 1.054754473420737781e+02 8.484097622739955602e-01 2.355956649491234775e-02
1.119110204081632531e-01 1.063363473607238916e+02 8.688627446759670248e-01 2.395574972571027500e-02
1.128097959183673449e-01 1.071974130086404102e+02 8.896568567365128466e-01 2.434277038036263691e-02
1.137085714285714227e-01 1.080586456522819248e+02 9.107840793404283763e-01 2.471995217424468455e-02
1.146073469387755006e-01 1.089200465708024126e+02 9.322358054525269333e-01 2.508661882273168289e-02
1.155061224489795924e-01 1.097816169534910671e+02 9.540028393899675496e-01 2.544209404119891771e-02
1.164048979591836702e-01 1.106433578972864922e+02 9.760753960928335582e-01 2.578570154502161926e-02
1.173036734693877481e-01 1.115052704043625340e+02 9.984431003946878658e-01 2.611676504957508374e-02
1.182024489795918398e-01 1.123673553797819977e+02 1.021094986294863283e+00 2.643460827023456569e-02
1.191012244897959177e-01 1.132296136292165301e+02 1.044019496234288802e+00 2.673855492237533008e-02
1.199999999999999956e-01 1.140920458567291007e+02 1.067204480376688469e+00 2.702792872137264879e-02
1.218861542310151480e-01 1.159024999150373674e+02 1.116654933865693256e+00 2.759965751997469838e-02
1.237723084620303143e-01 1.177137273543510219e+02 1.167160303169092694e+00 2.816946600176712528e-02
1.256584626930454807e-01 1.195257324449118670e+02 1.218717891653455121e+00 2.873710991075412516e-02
1.275446169240606331e-01 1.213385192850063987e+02 1.271324565225619319e+00 2.930235358791766914e-02
1.294307711550757856e-01 1.231520918022311974e+02 1.324976766663953365e+00 2.986496985799839271e-02
1.313169253860909380e-01 1.249664537548913330e+02 1.379670529781118260e+00 3.042473991752537438e-02
1.332030796171060905e-01 1.267816087335215656e+02 1.435401493421643915e+00 3.098145322438768112e-02
1.350892338481212707e-01 1.285975601625176807e+02 1.492164915298050065e+00 3.153490738921673614e-02
1.369753880791364231e-01 1.304143113018693327e+02 1.549955685669624605e+00 3.208490806882290103e-02
1.388615423101515756e-01 1.322318652489844339e+02 1.608768340868346858e+00 3.263126886191202586e-02
1.407476965411667280e-01 1.340502249405974453e+02 1.668597076676731294e+00 3.317381120728555427e-02
1.426338507721818805e-01 1.358693931547538796e+02 1.729435761562686746e+00 3.371236428470909818e-02
1.445200050031970607e-01 1.376893725128632298e+02 1.791277949776732381e+00 3.424676491861999850e-02
1.464061592342122131e-01 1.395101654818150223e+02 1.854116894317146658e+00 3.477685748482448047e-02
1.482923134652273656e-01 1.413317743761533336e+02 1.917945559768856834e+00 3.530249382032471517e-02
1.501784676962425180e-01 1.431542013603009877e+02 1.982756635022036251e+00 3.582353313639783515e-02
1.520646219272576705e-01 1.449774484508330374e+02 2.048542545876574472e+00 3.633984193504036925e-02
1.539507761582728507e-01 1.468015175187917407e+02 2.115295467538724328e+00 3.685129392887642741e-02
1.558369303892879754e-01 1.486264102920417827e+02 2.183007337016356519e+00 3.735776996461907806e-02
1.577230846203031556e-01 1.504521283576598591e+02 2.251669865419402949e+00 3.785915795016301516e-02
1.596092388513183080e-01 1.522786731643570590e+02 2.321274550172105045e+00 3.835535278537734183e-02
1.614953930823334605e-01 1.541060460249305493e+02 2.391812687143869187e+00 3.884625629665908186e-02
1.633815473133486129e-01 1.559342481187423459e+02 2.463275382705508498e+00 3.933177717529885709e-02
1.652677015443637654e-01 1.577632804942209646e+02 2.535653565717789881e+00 3.981183091970345866e-02
1.671538557753789456e-01 1.595931440713878544e+02 2.608937999459217227e+00 4.028633978151272693e-02
1.690400100063940980e-01 1.614238396444013119e+02 2.683119293500038971e+00 4.075523271564120836e-02
1.709261642374092505e-01 1.632553678841211138e+02 2.758187915529513923e+00 4.121844533427043711e-02
1.728123184684244029e-01 1.650877293406896058e+02 2.834134203143470199e+00 4.167591986481010424e-02
1.746984726994395554e-01 1.669209244461280832e+02 2.910948375599231586e+00 4.212760511184329704e-02
1.765846269304547356e-01 1.687549535169486887e+02 2.988620545544996787e+00 4.257345642306492595e-02
1.784707811614698880e-01 1.705898167567792143e+02 3.067140730730742337e+00 4.301343565921877943e-02
1.803569353924850405e-01 1.724255142590010905e+02 3.146498865707754611e+00 4.344751116803390045e-02
1.822430896235001929e-01 1.742620460093993984e+02 3.226684813523846174e+00 4.387565776215868185e-02
1.841292438545153454e-01 1.760994118888232265e+02 3.307688377421337478e+00 4.429785670108581097e-02
1.860153980855305256e-01 1.779376116758586477e+02 3.389499312544852927e+00 4.471409567705989657e-02
1.879015523165456780e-01 1.797766450495107904e+02 3.472107337665953253e+00 4.512436880495498265e-02
1.897877065475608305e-01 1.816165115918961419e+02 3.555502146931631025e+00 4.552867661610825178e-02
1.916738607785759829e-01 1.834572107909451972e+02 3.639673421643625062e+00 4.592702605609220307e-02
1.935600150095911354e-01 1.852987420431149133e+02 3.724610842075519734e+00 4.631943048640636135e-02
1.954461692406063156e-01 1.871411046561098885e+02 3.810304099334540062e+00 4.670590969006722243e-02
1.973323234716214403e-01 1.889842978516140874e+02 3.896742907274916234e+00 4.708648988107264066e-02
1.992184777026366205e-01 1.908283207680325972e+02 3.983917014469682716e+00 4.746120371771618551e-02
2.011046319336517729e-01 1.926731724632415990e+02 4.071816216247664322e+00 4.783009031972420416e-02
2.029907861646669254e-01 1.945188519173501902e+02 4.160430366802468249e+00 4.819319528918745293e-02
2.048769403956821056e-01 1.963653580354715587e+02 4.249749391380142072e+00 4.855057073525752276e-02
2.067630946266972303e-01 1.982126896505047000e+02 4.339763298552187898e+00 4.890227530257671568e-02
2.086492488577124105e-01 2.000608455259272205e+02 4.430462192580559844e+00 4.924837420340905103e-02
2.105354030887275629e-01 2.019098243585995647e+02 4.521836285881175144e+00 4.958893925343817177e-02
2.124215573197427154e-01 2.037596247815800155e+02 4.613875911592500323e+00 4.992404891119809479e-02
2.897190765581152960e-01 2.816469443768461360e+02 1.948253644867824619e+01 3.230179687889881412e-01
3.670165957964879322e-01 3.661143138067653808e+02 5.915413297791738501e+01 5.961118886667783334e-01
4.443141150348605128e-01 4.606305316514358310e+02 1.044083596089234334e+02 3.775899603586413966e-01
5.216116342732330935e-01 5.614247716074974051e+02 1.317585330049790002e+02 1.711718298923532722e-01
5.989091535116056741e-01 6.654966364468037909e+02 1.511700075788463948e+02 2.015112665652874779e-01
6.762066727499782548e-01 7.723091124030796664e+02 1.743342970699311252e+02 2.318507032382217115e-01
7.535041919883509465e-01 8.819890820046509816e+02 2.014490904697174187e+02 2.621901399111559727e-01
8.308017112267234161e-01 9.946581296318554450e+02 2.327221700686761778e+02 2.925295765840901230e-01
9.080992304650961078e-01 1.110434979869823110e+03 2.683715150297749119e+02 3.228690132570243843e-01
9.853967497034685774e-01 1.229437112284809245e+03 3.086254981782448112e+02 3.532084499299585900e-01
1.062694268941841269e+00 1.351781884414678188e+03 3.537231474854888802e+02 3.835478866028928513e-01
1.139991788180213961e+00 1.477587347142745102e+03 4.039144557573945917e+02 4.138873232758271126e-01
1.217289307418586430e+00 1.606972860281522117e+03 4.594607285876915057e+02 4.442267599487612628e-01
1.294586826656959122e+00 1.740059574353527523e+03 5.206349644093418192e+02 4.745661966216955241e-01
1.371884345895331592e+00 1.876970820492861549e+03 5.877222627543410454e+02 5.049056332946296743e-01
1.449181865133704283e+00 2.017832435974331020e+03 6.610202582640981745e+02 5.352450699675639356e-01
1.526479384372076975e+00 2.162773043931835673e+03 7.408395789255326918e+02 5.655845066404981969e-01
1.603776903610449445e+00 2.311924300106296869e+03 8.275043276360403297e+02 5.959239433134323471e-01
1.681074422848822136e+00 2.465421115705451484e+03 9.213525866361787848e+02 6.262633799863666084e-01
1.758371942087194606e+00 2.623401862930579682e+03 1.022736944660091012e+03 6.566028166593007587e-01
1.835669461325567298e+00 2.786008567990244956e+03 1.132025046882324887e+03 6.869422533322350199e-01
1.912966980563939767e+00 2.953387095207126549e+03 1.249600167912512916e+03 7.172816900051691702e-01
1.990264499802312459e+00 3.125687324960910701e+03 1.375861808223828348e+03 7.476211266781034315e-01
2.067562019040685151e+00 3.303063327586540709e+03 1.511226314508764972e+03 7.779605633510376927e-01
