# density  energy_density  pressure   sound_speed_squared  [All in nuclear units]
2.720000000000000022e-14 2.529924618736292620e-11 1.061056609100270887e-19 3.766610435412189122e-08
1.269999999999999890e-13 1.181251617980081254e-10 4.870113551826584858e-18 6.497781477172163475e-08
6.929999999999999754e-13 6.445728594625782745e-10 1.018299070687946017e-16 3.033770597342807186e-07
6.295000000000000137e-12 5.855111460395753757e-09 5.487150723824490656e-15 1.763710043904196507e-06
1.581000000000000150e-11 1.470523320212576141e-08 2.904239460150760759e-14 3.559434472327477622e-06
3.971999999999999958e-11 3.694456170323160790e-08 1.439340266754906811e-13 6.772854871245677111e-06
9.975999999999999982e-11 9.278976412613005154e-08 6.812143616221268841e-13 1.246890511177539320e-05
2.505999999999999928e-10 2.330928829758143313e-07 3.107749196951638608e-12 2.212095130576091967e-05
6.294000000000000186e-10 5.854398883216247602e-07 1.363250409771533549e-11 3.761981047239428883e-05
1.581000000000000021e-09 1.470619631082054101e-06 5.726014178088476303e-11 6.095350986710739404e-05
3.971999999999999932e-09 3.694861084648016046e-06 2.210019573374265380e-10 8.628023653304385055e-05
5.000000000000000105e-09 4.651201787816927976e-06 3.071485916280120014e-10 9.387863480799757518e-05
9.975999999999999465e-09 9.280587964640925786e-06 8.385361004129998845e-10 1.356922228656245837e-04
1.989999999999999952e-08 1.851419242998081003e-05 2.287763168863418088e-09 1.782101978513718314e-04
3.972999999999999908e-08 3.696699295748789187e-05 6.061583099087538954e-09 2.308134738384234820e-04
7.925999999999999637e-08 7.375765469301719828e-05 1.575347858094044765e-08 2.960532096713864875e-04
1.580999999999999930e-07 1.471491184379128891e-04 3.910429618672550719e-08 3.402859755131850544e-04
1.991000000000000027e-07 1.853209783927820692e-04 5.252045687899177454e-08 3.626488188833278743e-04
3.155999999999999938e-07 2.938002528823880299e-04 9.730770378831954314e-08 4.630767356912104081e-04
5.000999999999999849e-07 4.656344063839075714e-04 1.837494945860225819e-07 5.430301232045120323e-04
6.295999999999999732e-07 5.862651417037388971e-04 2.503103884558263872e-07 5.605192962670089638e-04
9.666999999999999941e-07 9.003386739730535665e-04 4.324450868778576936e-07 5.993081670211623108e-04
1.531999999999999901e-06 1.427170885631398036e-03 7.780217275717420968e-07 7.125938556504039095e-04
2.506999999999999883e-06 2.336134972129507662e-03 1.471005394641589826e-06 8.121876172121876309e-04
3.974000000000000407e-06 3.704315759716615697e-03 2.695705763844323844e-06 9.780674166779417152e-04
4.830000000000000343e-06 4.502887798316278223e-03 3.503988717694660908e-06 1.046253037768318664e-03
6.080999999999999885e-06 5.670217999231269741e-03 4.731126407333307547e-06 1.056224360839501646e-03
7.930000000000000308e-06 7.396012414119570652e-03 6.599662989063778187e-06 1.109203753630785610e-03
9.982000000000000313e-06 9.311815711689977113e-03 8.879881089227186733e-06 1.271216815433141075e-03
1.256999999999999993e-05 1.172874412604260098e-02 1.207676739913533738e-05 1.374195438212825332e-03
1.521999999999999997e-05 1.420427250933824909e-02 1.547541302213394990e-05 1.371610497379100249e-03
1.991000000000000080e-05 1.858690797761085312e-02 2.160710455847765458e-05 1.426578142835871997e-03
2.506999999999999883e-05 2.341050104039446925e-02 2.908031724375689851e-05 1.672007475975408053e-03
2.790999999999999875e-05 2.606604784714952258e-02 3.357009132255487721e-05 1.709425557744154774e-03
3.806999999999999973e-05 3.556967988784798945e-02 4.986781576435106434e-05 1.720407281314112165e-03
5.063000000000000145e-05 4.732434580343149871e-02 7.073400252905581275e-05 1.829889149838781265e-03
6.592000000000000583e-05 6.164112392498975052e-02 9.765037643900635188e-05 1.930242980462695823e-03
8.433000000000000066e-05 7.888776783401378612e-02 1.317235490470395893e-04 2.021055815200022837e-03
1.062000000000000064e-04 9.938561165478684845e-02 1.740088341640037047e-04 2.104789529260958983e-03
1.321000000000000126e-04 1.236720406455826121e-01 2.260189757651373944e-04 2.178291718403657477e-03
1.623999999999999901e-04 1.520974545104751274e-01 2.888169908545388338e-04 2.240170365918073281e-03
1.689999999999999879e-04 1.582907717069566844e-01 3.027354772999506964e-04 2.254509350360745651e-03
1.758999999999999930e-04 1.647661861691531171e-01 3.173785841705756782e-04 2.268169273277113179e-03
1.830000000000000029e-04 1.714298948183871907e-01 3.325196584577469103e-04 2.276170334580628063e-03
1.901999999999999882e-04 1.781880600978280049e-01 3.479577791899843742e-04 2.292561569242367037e-03
1.977000000000000079e-04 1.852284385240466902e-01 3.641242634600037713e-04 2.299943765467868384e-03
2.054000000000000053e-04 1.924572004474696396e-01 3.808304060475003897e-04 2.322187632288155723e-03
2.079000000000000119e-04 1.948043378760714872e-01 3.864137987380476553e-04 2.435429768083530178e-03
2.081999999999999921e-04 1.950859988578999005e-01 3.870314100985603909e-04 1.950065624557156818e-03
2.090999999999999868e-04 1.959309855029948977e-01 3.881261957135444685e-04 6.411875526909013856e-04
2.159999999999999919e-04 2.024093317906446865e-01 3.940874488768042125e-04 1.199166870571831411e-03
2.231000000000000019e-04 2.090756740932291913e-01 4.013938420547467825e-04 9.928616047829054436e-04
2.311000000000000066e-04 2.165873044433437034e-01 4.085241694843774404e-04 9.056166966301716637e-04
2.401000000000000085e-04 2.250381721984245909e-01 4.159700687886608468e-04 8.565463878902855599e-04
2.500000000000000052e-04 2.343344406330727658e-01 4.237602369176299592e-04 8.194318812157330018e-04
2.642999999999999733e-04 2.477629128650125634e-01 4.345596643180389446e-04 7.890063723638815647e-04
3.052999999999999941e-04 2.862671839140227270e-01 4.644058706720978241e-04 7.612775562167708662e-04
3.533000000000000224e-04 3.313503829113090826e-01 4.987577676308450197e-04 7.626578558207241024e-04
4.075999999999999871e-04 3.823564017794535141e-01 5.381334366106255759e-04 7.813048116943254948e-04
4.679999999999999915e-04 4.390986251953180042e-01 5.832692638200615834e-04 8.096035963157804938e-04
5.341000000000000261e-04 5.012024644415256081e-01 6.346556894078133086e-04 8.452514814113673558e-04
6.059000000000000366e-04 5.686690698184251325e-01 6.930641302632923034e-04 8.862253587289389486e-04
7.661000000000000275e-04 7.192254882508629654e-01 8.328184776562496576e-04 9.702780530519144065e-04
1.262000000000000101e-03 1.185459127778160093e+00 1.338484980802662205e-03 1.198863597978450275e-03
1.894999999999999983e-03 1.780909071169781921e+00 2.123481960401060308e-03 1.437771491635827115e-03
2.673000000000000029e-03 2.513147344746868850e+00 3.261860252001994032e-03 1.671524566936786766e-03
3.605999999999999830e-03 3.391736073717691369e+00 4.828136641022434151e-03 1.893900408978071038e-03
4.709999999999999777e-03 4.431905410739045870e+00 6.903512974832482635e-03 2.096551352830673849e-03
7.496000000000000059e-03 7.058993649504918366e+00 1.289742191321638018e-02 2.466596387205546859e-03
1.119999999999999989e-02 1.055540362104863661e+01 2.212077014004794340e-02 2.809304433764861584e-03
1.600000000000000033e-02 1.509117352747679952e+01 3.559566804390756900e-02 3.132325055719984222e-03
2.206999999999999934e-02 2.083310616724802244e+01 5.457322122755020599e-02 3.477840948757840792e-03
2.947999999999999926e-02 2.785007348564149154e+01 8.049103664263126956e-02 3.909302116317729670e-03
4.268000000000000266e-02 4.036707211535221518e+01 1.353887601042819133e-01 4.862066536253286525e-03
6.219999999999999835e-02 5.891246509830522626e+01 2.419691225623893105e-01 6.630786177272363080e-03
7.316999999999999893e-02 6.935151695866235855e+01 3.161896974764099033e-01 7.588671314871411888e-03
7.595999999999999974e-02 7.200836722020332559e+01 3.371250777904805096e-01 8.170805199905812125e-03
7.685877551020407761e-02 7.286441681010278160e+01 3.442078379471116834e-01 8.376732679324707179e-03
7.775755102040816935e-02 7.372055026750962270e+01 3.514693383578783581e-01 8.586736209289062838e-03
7.865632653061224722e-02 7.457676870903908650e+01 3.589130467661192925e-01 8.800659680691777856e-03
7.955510204081632508e-02 7.543307326466390350e+01 3.665422990864108388e-01 9.018346984425759660e-03
8.045387755102040295e-02 7.628946507577100533e+01 3.743602993708793902e-01 9.239642011383913944e-03
8.135265306122449469e-02 7.714594529330663875e+01 3.823701197728858747e-01 9.464388652459144666e-03
8.225142857142857256e-02 7.800251507600100354e+01 3.905747005080122403e-01 9.692430798544347109e-03
8.315020408163265042e-02 7.885917558867170385e+01 3.989768498122950868e-01 9.923612340532428702e-03
8.404897959183672829e-02 7.971592800059902117e+01 4.075792438976579835e-01 1.015777716931629340e-02
8.494775510204082003e-02 8.057277348397077787e+01 4.163844269045088309e-01 1.039476917578884517e-02
8.584653061224489790e-02 8.142971321239228644e+01 4.253948108514749027e-01 1.063443225084298276e-02
8.674530612244897576e-02 8.228674835945820121e+01 4.346126755822601329e-01 1.087661028537161186e-02
8.764408163265305363e-02 8.314388009738286200e+01 4.440401687096134919e-01 1.112114717026763816e-02
8.854285714285714537e-02 8.400110959568677060e+01 4.536793055564093957e-01 1.136788679642396216e-02
8.944163265306122323e-02 8.485843801993485158e+01 4.635319690938445314e-01 1.161667305473348608e-02
9.034040816326530110e-02 8.571586653052553118e+01 4.735999098767669224e-01 1.186734983608911387e-02
9.123918367346939284e-02 8.657339628152746513e+01 4.838847459761535519e-01 1.211976103138374949e-02
9.213795918367347071e-02 8.743102841956076077e+01 4.943879629087632455e-01 1.237375053151029344e-02
9.303673469387754857e-02 8.828876408272142839e+01 5.051109135639975101e-01 1.262916222736164967e-02
9.393551020408162644e-02 8.914660439954717219e+01 5.160548181280023572e-01 1.288584000983072735e-02
9.483428571428570431e-02 9.000455048802123770e+01 5.272207640050557975e-01 1.314362776981041828e-02
9.573306122448979605e-02 9.086260345461398913e+01 5.386097057362844165e-01 1.340236939819364030e-02
9.663183673469387391e-02 9.172076439335876330e+01 5.502224649157607672e-01 1.366190878587328177e-02
9.753061224489795178e-02 9.257903438496276749e+01 5.620597301040367588e-01 1.392208982374225183e-02
9.842938775510204352e-02 9.343741449594833171e+01 5.741220567391698282e-01 1.418275640269345966e-02
9.932816326530612139e-02 9.429590577782566641e+01 5.864098670453045115e-01 1.444375241361979534e-02
1.002269387755101993e-01 9.515450926629493722e+01 5.989234499388778055e-01 1.470492174741417149e-02
1.011257142857142910e-01 9.601322598047511292e+01 6.116629609325128225e-01 1.496610829496949555e-02
1.020244897959183689e-01 9.687205692216012665e+01 6.246284220366760120e-01 1.522715594717865759e-02
1.029232653061224467e-01 9.773100307510046036e+01 6.378197216591736662e-01 1.548790859493456504e-02
1.038220408163265246e-01 9.859006540430833354e+01 6.512366145025622055e-01 1.574821012913012880e-02
1.047208163265306025e-01 9.944924485538655290e+01 6.648787214595568429e-01 1.600790444065823895e-02
1.056195918367346942e-01 1.003085423538794174e+02 6.787455295065191185e-01 1.626683542041181332e-02
1.065183673469387721e-01 1.011679588046443001e+02 6.928363915951093466e-01 1.652484695928374547e-02
1.074171428571428499e-01 1.020274950912446315e+02 7.071505265421941244e-01 1.678178294816693936e-02
1.083159183673469417e-01 1.028871520753609445e+02 7.216870189180952799e-01 1.703748727795429893e-02
1.092146938775510195e-01 1.037469305962214463e+02 7.364448189332746253e-01 1.729180383953873162e-02
1.101134693877550974e-01 1.046068314700504374e+02 7.514227423235501080e-01 1.754457652381313099e-02
1.110122448979591891e-01 1.054668554895326622e+02 7.666194702339355072e-01 1.779564922167040791e-02
1.119110204081632531e-01 1.063270034232957073e+02 7.820335491012039286e-01 1.804486582400346290e-02
1.128097959183673449e-01 1.071872760154067947e+02 7.976633905352774612e-01 1.829207022170520683e-02
1.137085714285714227e-01 1.080476739848853782e+02 8.135072711995356975e-01 1.853710630566852979e-02
1.146073469387755006e-01 1.089081980252296376e+02 8.295633326901574733e-01 1.877981796678633575e-02
1.155061224489795924e-01 1.097688488039574537e+02 8.458295814145904146e-01 1.902004909595154253e-02
1.164048979591836702e-01 1.106296269621605006e+02 8.623038884692582062e-01 1.925764358405703675e-02
1.173036734693877481e-01 1.114905331140705869e+02 8.789839895166148276e-01 1.949244532199572930e-02
1.182024489795918398e-01 1.123515678466396679e+02 8.958674846616495602e-01 1.972429820066052414e-02
1.191012244897959177e-01 1.132127317191302467e+02 9.129518383279553451e-01 1.995304611094432523e-02
1.199999999999999956e-01 1.140740252627182372e+02 9.302343791334728440e-01 2.017853294374002959e-02
1.231612835362301955e-01 1.171045144097221851e+02 9.925618192570041520e-01 2.095488695645100763e-02
1.263225670724603955e-01 1.201366340349725448e+02 1.057286557488370304e+00 2.173767948511582879e-02
1.294838506086906094e-01 1.231704036095443939e+02 1.124430934763170020e+00 2.252680177227083663e-02
1.326451341449207955e-01 1.262058421973136149e+02 1.194017148801634454e+00 2.332222327062186129e-02
1.358064176811510093e-01 1.292429684834307579e+02 1.266067488165778299e+00 2.412398958299464755e-02
1.389677012173812232e-01 1.322818008055261316e+02 1.340604560621350139e+00 2.493222024691523625e-02
1.421289847536114093e-01 1.353223571872042896e+02 1.417651515349349856e+00 2.574710637251512863e-02
1.452902682898416231e-01 1.383646553734263875e+02 1.497232258572471997e+00 2.656890814148653648e-02
1.484515518260718370e-01 1.414087128674329961e+02 1.579371662179988034e+00 2.739795217395775764e-02
1.516128353623020231e-01 1.444545469688845287e+02 1.664095764950622724e+00 2.823462876941490104e-02
1.547741188985322369e-01 1.475021748129370280e+02 1.751431965987153783e+00 2.907938902714154658e-02
1.579354024347624230e-01 1.505516134099947578e+02 1.841409209989049556e+00 2.993274185108014962e-02
1.610966859709926369e-01 1.536028796859022236e+02 1.934058164000722169e+00 3.079525084352739694e-02
1.642579695072228230e-01 1.566559905223651867e+02 2.029411385282992253e+00 3.166753109165540425e-02
1.674192530434530368e-01 1.597109627974020327e+02 2.127503479964494737e+00 3.255024585050049490e-02
1.705805365796832507e-01 1.627678134256459543e+02 2.228371252137998137e+00 3.344410312577520555e-02
1.737418201159134368e-01 1.658265593983317672e+02 2.332053843074298971e+00 3.434985215963971134e-02
1.769031036521436506e-01 1.688872178228134544e+02 2.438592860233534498e+00 3.526827982241381720e-02
1.800643871883738645e-01 1.719498059614687691e+02 2.548032495760650384e+00 3.620020691312032801e-02
1.832256707246040506e-01 1.750143412698577663e+02 2.660419634158575519e+00 3.714648437172969608e-02
1.863869542608342644e-01 1.780808414340100114e+02 2.775803948839484558e+00 3.810798940602257157e-02
1.895482377970644783e-01 1.811493244067234230e+02 2.894237987261628842e+00 3.908562153610640327e-02
1.927095213332946644e-01 1.842198084427641902e+02 3.015777244366803167e+00 4.008029855982031542e-02
1.958708048695248505e-01 1.872923121328639411e+02 3.140480224041727553e+00 4.109295244253853563e-02
1.990320884057550643e-01 1.903668544364164177e+02 3.268408488335757589e+00 4.212452513524717751e-02
2.021933719419852782e-01 1.934434547127777648e+02 3.399626694177657171e+00 4.317596432522442795e-02
2.053546554782154643e-01 1.965221327510869855e+02 3.534202617345900688e+00 4.424821912420986297e-02
2.085159390144456781e-01 1.996029087985167507e+02 3.672207163460450730e+00 4.534223569960874056e-02
2.116772225506758920e-01 2.026858035868804109e+02 3.813714365779505400e+00 4.645895285505423355e-02
2.148385060869060781e-01 2.057708383575157143e+02 3.958801369602745091e+00 4.759929756755085922e-02
2.179997896231362919e-01 2.088580348843754848e+02 4.107548403103420398e+00 4.876418048945811018e-02
2.211610731593665058e-01 2.119474154952568767e+02 4.260038734435750207e+00 4.995449142475463095e-02
2.243223566955966919e-01 2.150390030911050587e+02 4.416358614992043741e+00 5.117109479036494046e-02
2.274836402318268780e-01 2.181328211633323804e+02 4.576597208716135512e+00 5.241482507484309522e-02
2.306449237680571196e-01 2.212288938090930799e+02 4.740846507416851097e+00 5.368648230840977753e-02
2.338062073042873057e-01 2.243272457444678309e+02 4.909201232067883502e+00 5.498682756024473456e-02
2.369674908405174918e-01 2.274279023155040989e+02 5.081758720129434970e+00 5.631657848106355613e-02
2.401287743767477056e-01 2.305308895070733399e+02 5.258618798982856113e+00 5.767640491137705772e-02
2.432900579129779195e-01 2.336362339495050833e+02 5.439883645633498688e+00 5.906692457846030031e-02
2.464513414492081056e-01 2.367439629229661477e+02 5.625657632909666361e+00 6.048869890797451548e-02
2.496126249854383194e-01 2.398541043595592726e+02 5.816047162468159115e+00 6.194222897940197120e-02
2.527739085216685333e-01 2.429666868431177136e+02 6.011160485010453414e+00 6.342795165800940715e-02
2.559351920578987194e-01 2.460817396066881884e+02 6.211107508219410711e+00 6.494623593995967059e-02
2.590964755941289610e-01 2.491992925276923643e+02 6.415999593045632388e+00 6.649737955148468660e-02
2.622577591303590916e-01 2.523193761207734553e+02 6.625949339106811387e+00 6.808160584773019497e-02
2.654190426665893332e-01 2.554420215283418258e+02 6.841070360114239968e+00 6.969906106201888274e-02
2.685803262028195748e-01 2.585672605088419687e+02 7.061477050409165734e+00 7.134981196187224761e-02
2.717416097390497054e-01 2.616951254227815298e+02 7.287284343880631177e+00 7.303384397421304464e-02
2.749028932752799470e-01 2.648256492165687632e+02 7.518607466746469292e+00 7.475105984874826082e-02
3.509252832084375218e-01 3.429298781325067580e+02 4.196456544950823542e+01 7.587082111744394286e-01
4.269476731415950410e-01 4.325448757162072866e+02 9.602972616891366897e+01 4.767230440860381613e-01
5.029700630747525603e-01 5.298903181132063764e+02 1.300709111534675628e+02 2.327202016547173791e-01
5.789924530079101350e-01 6.312719259402348371e+02 1.524627553650477410e+02 2.096062054736324010e-01
6.550148429410677098e-01 7.354896804226008271e+02 1.730804006499079151e+02 1.864922092925474228e-01
7.310372328742251735e-01 8.419927676451649177e+02 1.916944822417159742e+02 1.633782131114624725e-01
8.070596228073827483e-01 9.503243850850689114e+02 2.081287034976338362e+02 1.402642169303774944e-01
8.830820127405403230e-01 1.060099463757544527e+03 2.222480470596699433e+02 1.171502207492925163e-01
9.591044026736978978e-01 1.170989246424161365e+03 2.339503849722921984e+02 9.403622456820753817e-02
1.035126792606855473e+00 1.282710205277812747e+03 2.431602810106372203e+02 7.092222838712253230e-02
1.111149182540013047e+00 1.395027304590821359e+03 2.501618302848317796e+02 5.379589742397566238e-02
1.187171572473170400e+00 1.507788495765908692e+03 2.561656009299992434e+02 5.269468017851997726e-02
1.263193962406328197e+00 1.620931140772881236e+03 2.620651145464987053e+02 5.159346293306427828e-02
1.339216352339485550e+00 1.734785976046741780e+03 2.828052591009059711e+02 3.111249375773519343e-01
1.415238742272643124e+00 1.850623542814170605e+03 3.406160420054919200e+02 6.795530843241966990e-01
1.491261132205800699e+00 1.970553690165650551e+03 4.384048218305164255e+02 9.412420338867429903e-01
1.567283522138958274e+00 2.096302233827781947e+03 5.559198431542419030e+02 9.284272195682796713e-01
1.643305912072115849e+00 2.227843706918117732e+03 6.771651928910631568e+02 9.156124052498164634e-01
1.719328302005273423e+00 2.365077091090432077e+03 8.019006178912987934e+02 9.027975909313531444e-01
1.795350691938430998e+00 2.507899728041999424e+03 9.298882672670619058e+02 8.899827766128899365e-01
1.871373081871588351e+00 2.656207637911372785e+03 1.060893059510561216e+03 8.771679622944267285e-01
1.947395471804745926e+00 2.809895799675718081e+03 1.194682995811812816e+03 8.643531479759634095e-01
2.023417861737903500e+00 2.968858399028968506e+03 1.331029427266187213e+03 8.515383336575002016e-01
2.099440251671061297e+00 3.132989048247451137e+03 1.469707282330835596e+03 8.387235193390368826e-01
